time_s,participant_1,participant_2,participant_3
1110.832,-51.96,-12.4,-115.15
1110.84,-51.17,-47.59,-110.12
1110.847,-24.38,-71.33,-112.78
1110.855,-3.6,-85.39,-117.08
1110.863,-1.13,-94.59,-114.67
1110.87,-1.62,-99.98,-110.36
1110.878,-5.8,-103.68,-109.43
1110.886,-3.58,-102.65,-107.46
1110.893,30.64,-91.9,-104.95
1110.901,74.02,-79.8,-108.16
1110.909,84.73,-77.04,-113.24
1110.916,88.73,-77.9,-112.29
1110.924,123.57,-74.34,-107.11
1110.932,145.53,-72.11,-101.7
1110.94,116.81,-75.99,-95.77
1110.947,92.77,-78.43,-90.22
1110.955,97.84,-75.4,-86.0
1110.963,62.93,-74.29,-83.06
1110.97,-41.99,-77.09,-83.71
1110.978,-9.84,-77.09,-87.08
1110.986,-1.92,-76.16,-88.84
1110.993,-15.18,-79.94,-90.57
1111.001,-54.08,-81.46,-93.14
1111.009,-58.31,-75.14,-89.23
1111.016,-58.58,-70.58,-76.96
1111.024,-75.42,-72.64,-59.95
1111.032,-71.97,-72.66,-35.21
1111.04,-69.46,-68.32,-7.38
1111.047,-98.93,-66.1,4.71
1111.055,-110.54,-65.05,-9.9
1111.063,-80.65,-60.02,-41.0
1111.07,-79.92,-54.93,-53.03
1111.078,-90.14,-55.99,-28.88
1111.086,-73.03,-58.64,-22.77
1111.093,-49.26,-54.82,-40.49
1111.101,-50.13,-47.17,0.09
1111.109,-67.65,-45.88,14.49
1111.116,-86.12,-51.79,-75.9
1111.124,-97.78,-47.25,53.08
1111.132,-97.04,-40.92,824.47
1111.14,-86.63,-40.74,357.26
1111.147,-71.64,-37.09,301.18
1111.155,-62.75,-33.58,37.1
1111.163,-76.94,-34.97,-232.78
1111.17,-99.68,-31.06,-152.49
1111.178,-93.11,-18.6,-72.78
1111.186,-63.48,-15.49,-116.87
1111.193,-49.74,-26.21,-90.06
1111.201,-53.9,-30.64,-49.34
1111.209,-48.36,-23.36,-57.65
1111.216,-26.67,-21.13,-45.65
1111.224,-7.09,-23.66,-27.67
1111.232,-1.91,-12.27,-25.14
1111.24,-2.21,6.73,-10.62
1111.247,-1.06,6.69,7.33
1111.255,-7.87,-7.43,18.93
1111.263,-9.3,-8.56,38.98
1111.27,29.65,-3.08,64.95
1111.278,83.44,-12.08,92.53
1111.286,78.3,-20.96,131.35
1111.293,23.96,-11.49,176.94
1111.301,5.51,0.41,217.51
1111.309,29.07,6.3,259.4
1111.316,27.23,44.27,309.57
1111.324,-1.25,205.13,353.51
1111.332,-12.03,568.9,372.0
1111.34,-16.41,963.24,362.58
1111.347,-34.43,932.01,332.98
1111.355,-48.66,353.24,286.43
1111.363,-68.55,-191.47,220.77
1111.37,-92.45,-218.89,135.37
1111.378,-24.92,-28.27,39.31
1111.386,220.84,-34.1,-47.66
1111.393,628.45,-118.96,-112.99
1111.401,1047.97,-93.85,-161.08
1111.409,1094.52,-60.59,-194.85
1111.416,498.98,-81.86,-211.23
1111.424,-250.3,-76.9,-216.84
1111.432,-420.99,-48.0,-219.69
1111.44,-163.69,-50.18,-217.7
1111.447,-94.93,-61.81,-211.51
1111.455,-203.7,-49.37,-204.5
1111.463,-183.76,-27.37,-193.13
1111.47,-111.05,-13.92,-178.6
1111.478,-114.21,-6.67,-168.88
1111.486,-117.2,3.33,-161.94
1111.493,-99.79,19.17,-151.03
1111.501,-94.4,34.37,-140.2
1111.509,-74.79,47.24,-134.5
1111.516,-54.87,68.29,-128.89
1111.524,-64.13,99.43,-120.86
1111.532,-66.46,126.76,-116.68
1111.54,-67.82,142.52,-116.41
1111.547,-68.46,152.67,-112.96
1111.555,-55.46,162.61,-106.29
1111.563,-54.38,169.9,-98.13
1111.57,-54.48,168.6,-85.84
1111.578,-46.41,158.68,-75.41
1111.586,-41.33,148.66,-75.73
1111.593,-30.03,139.35,-79.63
1111.601,-10.9,117.13,-76.02
1111.609,-3.74,77.58,-68.0
1111.616,-1.03,34.62,-62.93
1111.624,16.96,-2.46,-61.0
1111.632,39.96,-36.42,-58.83
1111.64,56.74,-67.53,-54.57
1111.647,74.39,-91.14,-50.06
1111.655,90.58,-104.7,-47.63
1111.663,97.82,-110.51,-45.98
1111.67,104.38,-112.92,-44.08
1111.678,116.92,-115.33,-43.18
1111.686,121.13,-120.64,-42.78
1111.693,99.22,-119.54,-42.34
1111.701,57.36,-108.19,-41.89
1111.709,19.44,-99.88,-43.19
1111.716,-4.85,-100.01,-50.21
1111.724,-21.77,-96.26,-61.17
1111.732,-30.69,-86.25,-67.42
1111.74,-32.73,-82.88,-62.12
1111.747,-43.09,-86.36,-48.87
1111.755,-67.95,-83.62,-30.28
1111.763,-95.22,-74.32,-1.01
1111.77,-114.27,-70.34,29.4
1111.778,-124.23,-73.08,34.08
1111.786,-130.01,-72.79,9.63
1111.793,-128.83,-67.74,-12.67
1111.801,-103.24,-65.55,-12.04
1111.809,-54.93,-67.34,-4.31
1111.816,-20.38,-68.17,-7.62
1111.824,-16.71,-69.35,-7.9
1111.832,-18.25,-73.78,6.68
1111.84,-9.87,-77.08,8.32
1111.847,-5.74,-74.97,-3.52
1111.855,-9.82,-70.16,36.64
1111.863,-11.99,-66.72,185.82
1111.87,-17.84,-64.74,535.25
1111.878,-39.86,-61.51,1136.75
1111.886,-65.49,-57.15,1516.47
1111.893,-67.03,-56.32,931.81
1111.901,-43.75,-58.68,-271.2
1111.909,-25.66,-56.73,-775.48
1111.916,-28.38,-52.01,-332.71
1111.924,-32.68,-55.21,13.35
1111.932,-23.09,-62.92,-114.18
1111.94,-16.94,-60.03,-170.77
1111.947,-24.84,-48.02,-50.5
1111.955,-19.77,-42.39,-45.43
1111.963,6.11,-45.27,-95.19
1111.97,11.6,-47.26,-60.06
1111.978,-12.77,-47.46,-30.82
1111.986,-22.65,-49.72,-41.11
1111.993,-12.02,-50.07,-24.09
1112.001,-13.19,-44.26,2.67
1112.009,-12.33,-38.07,8.56
1112.016,16.91,-38.2,25.61
1112.024,44.39,-39.96,57.72
1112.032,39.11,-35.48,75.71
1112.04,19.45,-29.06,91.98
1112.047,12.42,-30.3,132.08
1112.055,33.44,-35.73,180.73
1112.063,74.49,-33.73,221.45
1112.07,82.38,-24.66,268.89
1112.078,38.73,-19.39,321.91
1112.086,18.98,-20.83,348.73
1112.093,60.41,-21.79,340.53
1112.101,88.82,-19.72,320.61
1112.109,70.16,-19.79,296.02
1112.116,42.11,-22.52,251.1
1112.124,15.92,-21.76,180.76
1112.132,8.36,-17.23,95.03
1112.14,10.51,-14.46,5.15
1112.147,25.49,-13.28,-76.76
1112.155,38.64,-11.17,-138.6
1112.163,14.17,-9.57,-179.17
1112.17,-15.48,-6.93,-207.91
1112.178,83.92,-2.08,-229.68
1112.186,419.17,-3.77,-240.47
1112.193,907.41,-13.11,-239.4
1112.201,1209.49,-13.69,-233.61
1112.209,940.91,-3.46,-226.48
1112.216,208.79,-0.6,-210.68
1112.224,-325.76,-4.68,-186.69
1112.232,-318.48,14.82,-168.01
1112.24,-160.47,101.62,-163.18
1112.247,-175.18,256.24,-159.85
1112.255,-194.49,693.7,-153.73
1112.263,-132.11,1060.15,-138.47
1112.27,-119.71,837.61,-129.3
1112.278,-118.72,145.75,-134.54
1112.286,-53.42,-252.41,-136.47
1112.293,-28.71,-128.46,-125.94
1112.301,-63.52,-4.63,-117.46
1112.309,-40.62,-95.67,-112.55
1112.316,5.88,-129.27,-99.55
1112.324,-29.84,-63.25,-86.12
1112.332,-82.52,-60.28,-86.12
1112.34,-65.68,-84.66,-92.37
1112.347,-42.59,-60.86,-92.06
1112.355,-62.65,-44.17,-84.11
1112.363,-61.29,-54.87,-73.28
1112.37,-7.03,-50.25,-67.71
1112.378,30.57,-34.6,-72.88
1112.386,-0.54,-31.16,-81.01
1112.393,-41.9,-30.34,-82.12
1112.401,-9.11,-18.92,-78.58
1112.409,59.33,0.89,-78.96
1112.416,62.23,20.41,-86.98
1112.424,28.71,34.87,-95.52
1112.432,57.89,51.06,-92.38
1112.44,110.4,74.51,-77.83
1112.447,86.03,98.18,-59.88
1112.455,26.99,118.09,-34.66
1112.463,29.66,137.22,-4.88
1112.47,57.04,152.61,1.94
1112.478,22.75,160.57,-23.9
1112.486,-41.25,162.88,-48.87
1112.493,-61.95,161.19,-48.4
1112.501,-68.31,157.89,-39.38
1112.509,-114.97,151.85,-39.09
1112.516,-174.54,134.79,-38.02
1112.524,-202.44,107.18,-33.57
1112.532,-189.71,77.79,-44.3
1112.54,-141.06,46.02,-51.29
1112.547,-97.78,11.75,11.54
1112.555,-105.96,-16.58,179.15
1112.563,-134.98,-40.32,512.83
1112.57,-141.45,-65.61,1090.8
1112.578,-142.24,-85.65,1543.89
1112.586,-139.69,-94.89,1117.65
1112.593,-115.61,-99.29,-57.12
1112.601,-100.77,-102.65,-731.19
1112.609,-107.75,-104.12,-412.8
1112.616,-91.29,-103.01,-18.6
1112.624,-55.23,-96.45,-99.02
1112.632,-49.66,-84.73,-196.83
1112.64,-54.61,-75.97,-93.14
1112.647,-71.57,-76.25,-52.86
1112.655,-55.56,-80.52,-93.37
1112.663,-34.66,-77.17,-77.17
1112.67,-36.94,-64.51,-54.19
1112.678,-7.27,-56.89,-64.01
1112.686,-14.05,-61.85,-50.81
1112.693,-50.15,-67.34,-17.76
1112.701,-65.32,-66.13,3.53
1112.709,-48.07,-66.08,21.77
1112.716,-34.15,-67.87,40.32
1112.724,-38.05,-65.09,57.4
1112.732,-45.21,-62.86,89.53
1112.74,-48.06,-66.2,137.15
1112.747,-38.16,-67.13,180.98
1112.755,-20.75,-62.81,220.61
1112.763,-32.32,-60.22,267.19
1112.77,-73.73,-59.18,311.7
1112.778,-96.93,-56.46,338.86
1112.786,-84.04,-52.21,338.6
1112.793,-41.82,-46.62,296.64
1112.801,21.28,-45.84,244.98
1112.809,57.98,-39.68,174.35
1112.816,45.15,-33.53,86.37
1112.824,33.94,-31.96,-2.75
1112.832,36.74,-34.97,-74.5
1112.84,14.89,-36.29,-126.79
1112.847,-15.95,-33.31,-165.98
1112.855,-35.1,-31.67,-192.77
1112.863,-61.05,-35.99,-207.1
1112.87,-61.14,-40.1,-211.82
1112.878,-15.7,-35.49,-206.9
1112.886,-28.36,-25.63,-194.92
1112.893,-127.83,-20.52,-185.66
1112.901,-118.44,-22.44,-182.07
1112.909,163.46,-26.89,-176.72
1112.916,678.67,-29.42,-167.53
1112.924,1241.26,-26.56,-158.25
1112.932,1416.62,-20.49,-149.09
1112.94,814.67,-19.55,-140.66
1112.947,-121.77,-25.4,-134.31
1112.955,-479.31,-30.03,-127.03
1112.963,-225.49,-29.86,-120.03
1112.97,-67.7,-27.71,-120.06
1112.978,-171.72,-22.15,-123.81
1112.986,-205.77,-12.27,-121.21
1112.993,-153.74,-6.86,-113.87
1113.001,-174.83,-12.86,-109.99
1113.009,-207.41,-23.59,-107.27
1113.016,-171.19,-28.31,-98.46
1113.024,-134.66,-25.38,-87.34
1113.032,-147.93,-22.44,-83.43
1113.04,-155.46,-24.89,-83.75
1113.047,-112.3,-25.83,-77.28
1113.055,-72.61,-18.19,-66.24
1113.063,-87.21,-10.0,-62.2
1113.07,-93.94,-9.56,-64.35
1113.078,-36.49,-11.64,-63.36
1113.086,19.05,-13.5,-59.45
1113.093,11.96,-19.51,-57.9
1113.101,-12.97,-25.51,-57.25
1113.109,-2.64,-24.91,-56.14
1113.116,48.68,-22.08,-60.7
1113.124,127.36,-19.91,-73.88
1113.132,182.11,-13.0,-86.27
1113.14,160.42,24.54,-87.82
1113.147,106.26,194.76,-81.26
1113.155,106.55,586.77,-72.8
1113.163,152.19,970.56,-56.96
1113.17,136.5,875.4,-27.66
1113.178,177.03,287.88,0.92
1113.186,166.39,-179.55,6.63
1113.193,-26.96,-175.35,-9.89
1113.201,-168.97,-40.25,-28.03
1113.209,-162.71,-75.28,-35.93
1113.216,-114.4,-133.05,-38.16
1113.224,-178.72,-98.38,-38.52
1113.232,-296.23,-78.49,-33.34
1113.24,-322.57,-98.7,-28.23
1113.247,-262.19,-90.66,-34.11
1113.255,-203.51,-67.88,-27.65
1113.263,-170.69,-64.81,45.12
1113.27,-167.44,-62.24,251.74
1113.278,-190.13,-50.95,688.35
1113.286,-177.53,-44.1,1258.05
1113.293,-125.92,-37.18,1394.24
1113.301,-109.74,-21.77,650.88
1113.309,-96.26,-5.06,-369.58
1113.316,-19.76,6.86,-660.78
1113.324,26.55,19.47,-290.55
1113.332,-22.34,28.21,-67.76
1113.34,-52.75,31.0,-171.19
1113.347,-11.99,33.79,-148.92
1113.355,14.92,36.58,-73.66
1113.363,6.33,39.36,-96.69
1113.37,1.61,42.15,-98.64
1113.378,-2.34,44.94,-52.1
1113.386,-2.38,47.72,-41.43
1113.393,13.27,58.73,-47.02
1113.401,17.24,82.46,-27.63
1113.409,2.3,107.5,-6.68
1113.416,-2.74,132.92,7.04
1113.424,-6.94,150.49,27.59
1113.432,-35.1,157.15,51.03
1113.44,-64.38,161.76,76.73
1113.447,-72.71,169.04,114.63
1113.455,-77.76,172.07,159.33
1113.463,-72.29,166.35,196.64
1113.47,-34.31,152.34,225.85
1113.478,-8.2,126.38,254.42
1113.486,-23.21,90.32,281.46
1113.493,-15.49,57.31,298.59
1113.501,13.93,29.41,299.5
1113.509,-25.28,-5.36,281.07
1113.516,-85.53,-43.78,242.78
1113.524,-43.31,-70.67,188.35
1113.532,35.47,-88.51,120.14
1113.54,28.09,-107.32,41.03
1113.547,-3.44,-121.53,-31.65
1113.555,19.46,-124.66,-81.39
1113.563,28.74,-120.98,-119.44
1113.57,-18.62,-112.1,-159.65
1113.578,-65.49,-99.39,-190.3
1113.586,-79.87,-91.57,-205.78
1113.593,-29.02,-90.06,-220.31
1113.601,203.53,-85.96,-231.08
1113.609,703.83,-79.51,-221.61
1113.616,1309.83,-79.6,-195.12
1113.624,1510.68,-84.89,-164.73
1113.632,876.09,-84.99,-140.58
1113.64,-155.91,-77.66,-134.94
1113.647,-592.05,-71.14,-143.35
1113.655,-304.02,-72.05,-143.93
1113.663,-83.95,-78.29,-132.53
1113.67,-205.35,-81.24,-119.99
1113.678,-256.94,-76.44,-110.76
1113.686,-168.52,-71.79,-112.42
1113.693,-173.58,-73.96,-127.13
1113.701,-216.08,-74.99,-135.46
1113.709,-173.12,-70.91,-126.23
1113.716,-131.27,-70.84,-112.04
1113.724,-133.11,-72.03,-99.3
1113.732,-134.95,-62.61,-84.31
1113.74,-136.8,-52.54,-71.13
1113.747,-138.64,-58.25,-61.78
1113.755,-140.48,-67.85,-53.35
1113.763,-142.32,-61.78,-54.76
1113.77,-144.16,-47.45,-73.45
1113.778,-146.0,-42.23,-92.28
1113.786,-145.39,-44.36,-90.51
1113.793,-104.91,-43.35,-74.92
1113.801,-52.53,-40.31,-68.1
1113.809,-36.12,-40.56,-76.41
1113.816,-49.17,-41.68,-83.58
1113.824,-43.51,-41.39,-76.22
1113.832,-17.02,-43.82,-67.11
1113.84,-12.14,-48.81,-70.99
1113.847,-22.59,-45.98,-65.73
1113.855,-13.06,-30.04,-32.79
1113.863,12.39,-14.43,-12.69
1113.87,49.13,-14.85,-32.63
1113.878,103.73,-26.04,-42.01
1113.886,144.44,-33.35,-20.13
1113.893,139.06,-33.39,-28.23
1113.901,105.57,-27.25,-34.84
1113.909,79.0,-18.11,-39.1
1113.916,81.21,-18.44,-43.36
1113.924,106.74,-27.99,-47.62
1113.932,115.97,-26.5,-51.88
1113.94,81.51,-17.45,-56.14
1113.947,19.2,-23.02,-60.39
1113.955,-39.89,-34.88,-64.65
1113.963,-72.67,-45.28,-68.91
1113.97,-91.56,-43.92,-73.17
1113.978,-138.71,-23.61,-77.43
1113.986,-191.16,-17.12,-81.69
1113.993,-177.67,-12.26,-84.64
1114.001,-141.9,35.78,-66.96
1114.009,-178.92,207.28,-35.96
1114.016,-228.02,595.82,-31.1
1114.024,-203.34,1017.23,-17.94
1114.032,-179.64,951.91,72.84
1114.04,-189.32,292.79,323.26
1114.047,-127.89,-267.51,789.67
1114.055,-11.86,-238.55,1252.59
1114.063,32.45,-26.05,1152.96
1114.07,24.12,-53.44,307.56
1114.078,48.24,-130.36,-527.23
1114.086,74.61,-74.69,-585.47
1114.093,66.14,-31.54,-192.11
1114.101,68.78,-58.51,-58.11
1114.109,99.96,-65.03,-153.04
1114.116,111.94,-52.04,-123.29
1114.124,88.34,-61.04,-29.29
1114.132,67.88,-69.47,-39.45
1114.14,72.14,-51.37,-77.43
1114.147,84.28,-18.76,-59.57
1114.155,94.19,-1.85,-22.18
1114.163,101.93,-13.3,6.46
1114.17,92.85,-17.63,21.33
1114.178,64.34,18.09,14.78
1114.186,50.32,58.05,11.71
1114.193,71.37,61.47,41.13
1114.201,86.45,60.48,82.65
1114.209,49.87,90.86,106.0
1114.216,-0.06,125.72,126.55
1114.224,8.99,144.57,173.31
1114.232,56.61,169.65,232.59
1114.24,61.12,198.62,268.26
1114.247,20.74,203.29,281.04
1114.255,8.55,192.32,298.21
1114.263,46.33,189.26,318.02
1114.27,82.36,183.75,317.68
1114.278,78.59,158.23,293.4
1114.286,52.54,117.26,249.74
1114.293,40.45,71.06,187.18
1114.301,49.43,23.98,115.61
1114.309,36.94,-20.06,41.3
1114.316,29.84,-50.45,-42.78
1114.324,-12.33,-58.48,-124.54
1114.332,-3.65,-63.88,-168.26
1114.34,337.9,-94.36,-167.9
1114.347,851.72,-129.4,-168.03
1114.355,1448.52,-133.14,-197.87
1114.363,1545.32,-125.25,-219.85
1114.37,714.74,-132.88,-197.61
1114.378,-329.71,-129.82,-167.34
1114.386,-561.23,-103.23,-168.83
1114.393,-254.34,-89.08,-172.9
1114.401,-243.1,-96.2,-150.61
1114.409,-401.43,-98.4,-129.32
1114.416,-320.51,-92.23,-126.54
1114.424,-227.28,-80.64,-122.88
1114.432,-288.7,-58.89,-122.59
1114.44,-292.2,-47.38,-142.19
1114.447,-233.15,-62.29,-151.61
1114.455,-234.96,-82.3,-125.83
1114.463,-213.82,-93.47,-107.64
1114.47,-155.73,-100.98,-129.0
1114.478,-182.63,-95.82,-147.76
1114.486,-234.81,-74.87,-132.99
1114.493,-191.28,-65.16,-117.1
1114.501,-129.69,-57.96,-119.2
1114.509,-131.35,-51.94,-112.95
1114.516,-127.46,-62.88,-72.43
1114.524,-84.53,-42.28,-68.21
1114.532,-53.16,-40.79,-87.52
1114.54,-40.32,-54.74,-93.41
1114.547,-24.62,-58.11,-69.99
1114.555,-1.09,-47.65,-65.5
1114.563,45.64,-45.24,-71.04
1114.57,101.63,-49.74,-69.92
1114.578,126.41,-47.78,-60.95
1114.586,136.04,-45.36,-46.94
1114.593,146.94,-45.0,-14.66
1114.601,120.21,-39.53,23.68
1114.609,77.11,-34.69,25.76
1114.616,79.57,-34.87,-6.29
1114.624,83.29,-33.87,-21.8
1114.632,26.12,-32.86,-11.91
1114.64,-47.77,-31.63,-15.34
1114.647,-98.0,-23.16,-30.1
1114.655,-140.8,-13.97,-19.75
1114.663,-165.5,-14.51,3.91
1114.67,-163.26,-20.13,6.56
1114.678,-164.53,-23.46,11.07
1114.686,-173.21,-21.8,75.3
1114.693,-176.53,-16.93,298.62
1114.701,-186.49,-20.07,841.08
1114.709,-194.11,-33.16,1534.64
1114.716,-182.85,-37.47,1585.61
1114.724,-180.38,-24.94,561.94
1114.732,-196.01,-9.81,-563.04
1114.74,-191.74,-2.83,-662.89
1114.747,-162.92,-5.49,-166.09
1114.755,-137.71,-12.81,-46.75
1114.763,-120.18,-8.95,-198.59
1114.77,-111.21,7.9,-155.45
1114.778,-117.78,12.2,-75.75
1114.786,-121.73,-4.34,-125.63
1114.793,-104.27,-15.96,-121.67
1114.801,-75.26,-11.88,-49.77
1114.809,-52.71,-9.71,-49.08
1114.816,-49.12,-15.15,-71.39
1114.824,-85.65,-15.25,-43.38
1114.832,-101.67,-5.39,-20.92
1114.84,-79.56,7.42,-22.58
1114.847,-72.73,15.87,-3.69
1114.855,-71.4,13.8,32.01
1114.863,-71.05,1.71,65.83
1114.87,-83.86,-6.13,110.02
1114.878,-105.14,-0.19,155.08
1114.886,-108.28,4.09,177.77
1114.893,-84.0,-7.98,198.92
1114.901,-43.49,-18.79,238.23
1114.909,7.08,-8.38,260.42
1114.916,35.92,4.88,245.34
1114.924,7.27,9.14,228.51
1114.932,-31.84,101.28,220.41
1114.94,-22.98,439.05,189.0
1114.947,-5.93,919.44,132.39
1114.955,-24.72,1054.96,68.54
1114.963,-58.26,576.33,-6.33
1114.97,-88.74,-37.7,-79.06
1114.978,-92.51,-203.19,-122.14
1114.986,-53.19,-63.36,-155.15
1114.993,-47.5,-48.16,-204.05
1115.001,-106.77,-132.43,-237.92
1115.009,-61.01,-121.46,-234.19
1115.016,238.22,-83.65,-223.74
1115.024,736.74,-100.26,-219.34
1115.032,1271.72,-98.78,-198.73
1115.04,1469.52,-75.47,-168.02
1115.047,901.91,-67.6,-152.6
1115.055,-93.21,-102.27,-147.01
1115.063,-545.02,-100.31,-139.41
1115.07,-290.26,-44.43,-147.47
1115.078,-92.08,-17.14,-156.59
1115.086,-207.29,-33.11,-137.82
1115.093,-238.26,-31.71,-123.13
1115.101,-152.4,-9.79,-127.91
1115.109,-196.55,-4.55,-135.48
1115.116,-266.3,6.55,-136.66
1115.124,-194.12,49.88,-134.33
1115.132,-131.26,82.61,-124.07
1115.14,-185.01,85.09,-107.97
1115.147,-183.86,104.73,-99.58
1115.155,-64.23,146.86,-100.41
1115.163,-19.7,165.3,-99.36
1115.17,-97.23,165.63,-93.67
1115.178,-117.59,181.56,-90.77
1115.186,-62.89,193.57,-95.59
1115.193,-63.81,177.2,-102.8
1115.201,-90.25,159.27,-100.91
1115.209,-64.19,158.8,-90.44
1115.216,-34.55,149.29,-89.02
1115.224,-12.5,113.33,-104.54
1115.232,51.68,70.7,-117.34
1115.24,126.92,37.38,-104.24
1115.247,170.82,1.41,-70.82
1115.255,189.23,-44.55,-43.84
1115.263,180.54,-79.82,-28.98
1115.27,177.3,-93.03,-4.61
1115.278,230.13,-104.92,25.83
1115.286,301.17,-122.28,25.46
1115.293,318.97,-125.96,-8.52
1115.301,284.2,-119.47,-33.4
1115.309,241.24,-118.74,-31.57
1115.316,206.37,-114.08,-26.59
1115.324,143.63,-102.54,-30.21
1115.332,33.86,-101.16,-34.43
1115.34,-52.36,-105.12,-40.92
1115.347,-49.91,-103.32,-41.43
1115.355,-7.89,-106.54,-4.82
1115.363,1.19,-108.28,101.93
1115.37,-17.39,-88.39,401.59
1115.378,-33.94,-68.14,1042.31
1115.386,-35.42,-77.17,1658.71
1115.393,-36.9,-93.91,1397.2
1115.401,-38.39,-90.35,230.22
1115.409,-39.87,-82.91,-626.39
1115.416,-41.35,-89.72,-489.64
1115.424,-42.84,-96.96,-112.61
1115.432,-44.32,-95.76,-133.39
1115.44,-45.8,-95.06,-227.34
1115.447,-47.29,-91.21,-149.19
1115.455,-48.77,-78.22,-111.9
1115.463,-50.25,-71.28,-148.21
1115.47,-51.74,-76.94,-125.04
1115.478,-53.22,-77.17,-86.64
1115.486,-61.12,-66.34,-89.81
1115.493,-70.49,-58.73,-81.03
1115.501,-79.46,-60.24,-51.41
1115.509,-84.85,-66.24,-35.46
1115.516,-56.21,-68.18,-21.9
1115.524,-7.95,-55.47,4.56
1115.532,0.54,-35.18,30.63
1115.54,-23.64,-30.29,55.65
1115.547,-23.04,-41.63,93.37
1115.555,1.89,-46.51,135.13
1115.563,21.88,-37.74,165.49
1115.57,42.84,-29.77,192.15
1115.578,58.05,-31.07,208.91
1115.586,34.8,-33.73,190.02
1115.593,-3.7,-30.1,134.48
1115.601,10.58,-27.52,93.87
1115.609,66.21,-30.06,42.2
1115.616,83.52,-33.87,-3.37
1115.624,65.06,-34.01,-10.78
1115.632,71.42,-20.35,-129.95
1115.64,67.77,-7.93,-190.21
1115.647,-1.53,-13.16,-173.54
1115.655,-58.59,-24.85,-144.05
1115.663,-26.64,-26.97,-137.7
1115.67,7.6,-22.41,-131.35
1115.678,-38.91,-17.93,-120.48
1115.686,-82.78,-11.71,-110.17
1115.693,-44.83,-7.34,-96.48
1115.701,13.16,-14.49,-87.84
1115.709,47.92,-25.4,-92.35
1115.716,95.41,-21.56,-97.89
1115.724,114.12,-10.09,-89.53
1115.732,47.42,-11.13,-73.27
1115.74,-0.25,-14.54,-70.24
1115.747,56.3,-2.89,-84.49
1115.755,92.95,6.08,-94.32
1115.763,18.47,-4.07,-88.12
1115.77,-61.23,-13.62,-77.87
1115.778,-74.0,-10.89,-70.74
1115.786,-82.2,-11.81,-65.05
1115.793,-122.3,-18.56,-64.46
1115.801,-155.5,-20.13,-69.89
1115.809,-106.53,-20.86,-79.1
1115.816,117.97,-21.57,-90.71
1115.824,546.7,-9.08,-88.77
1115.832,1057.03,10.97,-61.61
1115.84,1323.98,40.92,-39.44
1115.847,984.15,189.35,-55.69
1115.855,181.96,587.15,-88.19
1115.863,-373.56,1031.04,-95.6
1115.87,-363.48,993.16,-79.4
1115.878,-240.42,375.32,-63.88
1115.886,-303.64,-175.44,-48.82
1115.893,-313.72,-201.58,-19.45
1115.901,-177.56,-43.41,15.24
1115.909,-103.64,-69.19,26.4
1115.916,-144.17,-129.8,8.71
1115.924,-191.81,-85.23,-8.55
1115.932,-210.96,-64.71,-5.32
1115.94,-208.42,-101.72,4.97
1115.947,-184.3,-100.03,8.32
1115.955,-153.92,-69.09,12.06
1115.963,-135.95,-61.92,18.88
1115.97,-148.11,-59.24,20.5
1115.978,-176.55,-45.81,38.19
1115.986,-158.8,-39.63,127.99
1115.993,-88.01,-34.64,348.45
1116.001,-50.42,-16.83,736.42
1116.009,-73.44,2.74,1140.61
1116.016,-74.37,16.5,1079.53
1116.024,-16.55,31.81,283.14
1116.032,35.7,47.86,-606.62
1116.04,47.05,62.73,-724.04
1116.047,43.54,85.1,-260.57
1116.055,40.03,112.99,-15.56
1116.063,47.25,134.56,-86.24
1116.07,68.64,155.44,-85.82
1116.078,84.76,182.39,-8.3
1116.086,91.37,197.08,-14.25
1116.093,100.59,190.55,-31.04
1116.101,115.54,182.88,-1.45
1116.109,116.97,178.13,8.09
1116.116,90.68,160.41,0.33
1116.124,59.21,131.79,14.93
1116.132,41.53,90.99,32.28
1116.14,16.63,25.75,41.57
1116.147,-23.91,-61.47,54.02
1116.155,-62.29,-75.73,59.32
1116.163,-107.89,-92.38,64.62
1116.17,-158.62,-98.34,69.92
1116.178,-165.41,-115.05,75.21
1116.186,-132.96,-121.59,87.6
1116.193,-123.71,-114.55,107.98
1116.201,-130.04,-101.87,139.07
1116.209,-112.23,-92.71,174.91
1116.216,-91.97,-86.13,206.64
1116.224,-77.38,-82.76,239.04
1116.232,-49.22,-83.64,271.2
1116.24,-47.58,-80.67,286.52
1116.247,-98.69,-69.24,276.97
1116.255,-139.93,-59.58,253.19
1116.263,-139.74,-60.36,221.14
1116.27,-127.98,-66.75,173.23
1116.278,-81.59,-72.38,107.77
1116.286,4.03,-76.59,35.6
1116.293,22.42,-79.17,-32.5
1116.301,-38.83,-79.81,-90.43
1116.309,-34.64,-78.46,-135.26
1116.316,29.22,-73.26,-168.84
1116.324,0.77,-65.32,-194.21
1116.332,-72.51,-60.68,-211.07
1116.34,-47.36,-60.96,-218.09
1116.347,11.05,-61.6,-214.52
1116.355,9.14,-61.5,-201.35
1116.363,7.4,-63.28,-185.31
1116.37,14.64,-65.77,-173.45
1116.378,-28.28,-65.13,-163.17
1116.386,-55.82,-60.35,-149.47
1116.393,-2.97,-53.77,-137.0
1116.401,36.24,-49.4,-130.72
1116.409,5.32,-49.87,-125.18
1116.416,-0.69,-52.04,-117.03
1116.424,57.94,-48.95,-113.74
1116.432,87.91,-39.15,-117.98
1116.44,45.99,-31.79,-120.48
1116.447,5.89,-35.07,-117.23
1116.455,16.03,-41.02,-115.59
1116.463,24.8,-37.47,-119.01
1116.47,-17.07,-31.57,-123.03
1116.478,-70.21,-35.37,-125.66
1116.486,-88.21,-39.64,-126.73
1116.493,-98.61,-32.56,-122.5
1116.501,-115.65,-23.56,-113.42
1116.509,-105.05,-22.49,-108.92
1116.516,-96.19,-22.89,-113.81
1116.524,-133.39,-20.44,-120.1
1116.532,-158.76,-20.43,-121.58
1116.54,-89.45,-23.14,-123.24
1116.547,209.98,-22.05,-127.53
1116.555,825.29,-16.97,-123.83
1116.563,1285.73,-16.7,-100.71
1116.57,984.9,-23.87,-65.5
1116.578,199.24,-26.89,-43.71
1116.586,-151.72,-18.9,-51.08
1116.593,-439.67,-10.79,-72.91
1116.601,-243.93,-10.74,-83.11
1116.609,-148.44,-11.17,-76.39
1116.616,-181.11,-7.41,-66.96
1116.624,-140.53,-6.2,-60.63
1116.632,-153.1,-9.41,-51.64
1116.64,-159.65,-9.66,-46.04
1116.647,-126.31,-5.87,-44.12
1116.655,-105.16,-6.17,-4.65
1116.663,-112.47,-11.52,127.79
1116.67,-113.25,-12.86,404.9
1116.678,-100.01,-8.18,827.8
1116.686,-85.57,-4.04,1117.9
1116.693,-44.78,0.03,799.37
1116.701,20.94,4.48,-44.43
1116.709,31.89,5.78,-591.9
1116.716,-21.65,7.07,-422.78
1116.724,-32.09,8.37,-83.44
1116.732,35.11,9.67,-49.82
1116.74,104.49,10.97,-99.88
1116.747,131.85,12.27,-107.62
1116.755,122.8,13.57,-115.36
1116.763,104.92,15.71,-103.29
1116.77,118.1,15.53,-29.09
1116.778,137.07,8.59,-43.03
1116.786,102.09,-1.92,-53.46
1116.793,47.52,-10.11,-8.46
1116.801,35.17,-7.34,4.36
1116.809,38.63,2.07,-6.27
1116.816,23.52,3.07,10.89
1116.824,-2.65,-3.6,26.05
1116.832,-41.13,7.95,28.94
1116.84,-62.12,114.86,52.66
1116.847,-31.8,440.99,85.25
1116.855,-27.29,913.25,103.89
1116.863,-95.4,1075.21,129.77
1116.87,-108.95,610.05,173.3
1116.878,-25.54,-40.45,209.51
1116.886,-3.86,-234.27,229.34
1116.893,-75.12,-66.92,245.71
1116.901,-92.07,-16.13,257.78
1116.909,-48.45,-103.61,257.24
1116.916,-54.51,-109.41,250.07
1116.924,-83.44,-72.62,239.4
1116.932,-53.54,-87.49,208.93
1116.94,-5.28,-94.36,147.37
1116.947,3.15,-69.16,70.49
1116.955,-1.34,-60.95,1.14
1116.963,-10.62,-62.0,-55.41
1116.97,-57.07,-46.14,-101.15
1116.978,-104.02,-31.06,-133.36
1116.986,-88.77,-26.44,-159.59
1116.993,-38.42,-18.78,-187.28
1117.001,-11.51,-8.78,-192.75
1117.009,-7.21,-2.48,-162.29
1117.016,2.51,8.55,-138.53
1117.024,27.48,30.14,-146.7
1117.032,44.17,54.87,-145.48
1117.04,17.01,76.81,-118.72
1117.047,-24.57,98.79,-105.37
1117.055,-8.68,123.38,-107.43
1117.063,48.36,147.95,-93.14
1117.07,69.01,167.68,-76.48
1117.078,59.22,177.52,-84.53
1117.086,77.55,175.66,-96.01
1117.093,110.95,168.06,-88.41
1117.101,109.56,162.15,-79.58
1117.109,77.84,155.19,-81.55
1117.116,48.16,137.92,-82.47
1117.124,34.15,108.73,-83.81
1117.132,29.11,74.23,-91.93
1117.14,11.64,38.1,-90.31
1117.147,-14.08,1.22,-70.31
1117.155,-55.22,-32.41,-52.74
1117.163,-25.64,-61.35,-51.92
1117.17,30.14,-87.94,-59.16
1117.178,-22.53,-107.73,-63.78
1117.186,-98.12,-115.36,-62.1
1117.193,71.2,-117.63,-56.11
1117.201,548.3,-121.27,-50.24
1117.209,1118.71,-120.35,-46.66
1117.216,1407.46,-110.31,-48.3
1117.224,1021.17,-97.08,-52.63
1117.232,113.82,-87.67,-43.36
1117.24,-483.7,-84.21,-14.14
1117.247,-388.23,-84.2,12.97
1117.255,-173.52,-81.8,15.82
1117.263,-228.74,-74.79,-1.08
1117.27,-259.31,-68.16,-18.78
1117.278,-152.47,-66.36,-23.05
1117.286,-141.09,-67.62,-15.32
1117.293,-194.45,-68.8,-13.05
1117.301,-137.31,-69.74,-5.57
1117.309,-59.92,-70.95,14.59
1117.316,-96.89,-71.52,264.38
1117.324,-164.66,-71.17,609.54
1117.332,-154.72,-70.41,862.02
1117.34,-96.2,-68.92,654.71
1117.347,-55.52,-67.66,-66.83
1117.355,-56.18,-66.28,-682.57
1117.363,-79.69,-65.14,-600.64
1117.37,-83.53,-64.15,-143.37
1117.378,-65.37,-61.27,42.83
1117.386,-56.9,-57.23,-23.01
1117.393,-38.46,-56.96,-12.55
1117.401,15.81,-60.12,46.53
1117.409,57.89,-58.56,30.68
1117.416,58.47,-49.79,16.04
1117.424,70.86,-43.13,48.0
1117.432,114.38,-45.02,62.57
1117.44,137.37,-49.48,51.8
1117.447,140.28,-49.96,54.5
1117.455,168.76,-48.26,70.29
1117.463,181.09,-47.03,85.08
1117.47,119.05,-45.31,101.4
1117.478,62.3,-43.52,123.35
1117.486,87.42,-44.16,150.04
1117.493,98.73,-47.06,179.22
1117.501,27.5,-48.03,209.45
1117.509,-20.82,-44.59,241.38
1117.516,-2.11,-41.25,273.62
1117.524,-17.21,-41.68,297.63
1117.532,-71.91,-38.98,303.45
1117.54,-76.92,-29.09,291.1
1117.547,-56.2,-25.34,265.97
1117.555,-72.06,-35.74,226.3
1117.563,-82.99,-44.01,170.17
1117.57,-67.95,-40.71,103.61
1117.578,-74.82,-41.12,31.61
1117.586,-81.01,-49.35,-40.48
1117.593,-49.78,-49.37,-100.3
1117.601,-39.29,-40.47,-141.71
1117.609,-56.98,-34.86,-168.83
1117.616,-28.75,-31.09,-182.43
1117.624,10.16,-26.89,-185.13
1117.632,-17.49,-30.12,-186.62
1117.64,-54.24,-36.83,-187.07
1117.647,-47.01,-34.23,-180.35
1117.655,-57.39,-27.17,-171.09
1117.663,-98.56,-27.78,-161.49
1117.67,-98.2,-31.39,-145.97
1117.678,-119.16,-28.93,-132.27
1117.686,-138.95,-24.33,-128.58
1117.693,-114.98,-22.69,-121.1
1117.701,-119.46,-21.93,-104.05
1117.709,-133.71,-23.99,-95.17
1117.716,-64.54,-30.85,-94.95
1117.724,-39.27,-31.28,-84.3
1117.732,-84.78,-17.93,-70.3
1117.74,-84.29,-3.07,-74.1
1117.747,-56.85,6.38,-84.71
1117.755,-93.6,15.97,-82.47
1117.763,-122.47,14.62,-79.7
1117.77,-85.2,-7.08,-90.18
1117.778,-76.8,-24.66,-99.25
1117.786,-114.04,-28.43,-95.92
1117.793,-112.59,-36.8,-91.43
1117.801,-112.94,-27.42,-94.05
1117.809,-173.46,1.11,-98.18
1117.816,-145.38,-21.34,-97.73
1117.824,152.99,-26.52,-95.34
1117.832,700.1,154.34,-98.37
1117.84,1252.38,411.86,-103.4
1117.847,1336.95,508.9,-94.37
1117.855,655.5,491.62,-70.69
1117.863,-243.95,298.7,-64.8
1117.87,-507.95,-64.47,-58.91
1117.878,-239.05,-216.88,-53.02
1117.886,-139.48,-80.57,-47.14
1117.893,-267.21,-75.26,-41.26
1117.901,-268.77,-79.23,-45.56
1117.909,-188.39,-64.12,-65.07
1117.916,-201.26,-59.27,-79.0
1117.924,-225.73,-57.22,-76.22
1117.932,-189.96,-45.54,-66.62
1117.94,-156.05,-33.15,-61.79
1117.947,-146.11,-18.14,-59.49
1117.955,-145.45,-2.13,-57.7
1117.963,-150.86,5.37,-49.48
1117.97,-131.96,15.27,2.24
1117.978,-83.03,40.96,144.31
1117.986,-48.03,69.78,393.54
1117.993,-36.48,89.75,684.26
1118.001,-29.22,112.28,771.15
1118.009,-20.08,144.38,381.64
1118.016,5.09,172.99,-290.81
1118.024,38.71,190.22,-615.12
1118.032,54.75,202.03,-376.98
1118.04,74.33,209.63,-62.34
1118.047,107.03,208.52,-23.2
1118.055,110.2,199.86,-69.26
1118.063,95.54,186.03,-30.08
1118.07,118.94,165.25,-1.44
1118.078,164.41,135.87,-15.86
1118.086,172.41,96.41,-2.9
1118.093,129.54,48.71,23.21
1118.101,73.45,3.62,24.16
1118.109,42.12,-32.8,26.2
1118.116,27.75,-68.26,44.41
1118.124,11.44,-101.85,57.73
1118.132,11.76,-118.73,67.22
1118.14,23.49,-118.81,90.98
1118.147,0.39,-118.58,122.34
1118.155,-39.55,-124.18,142.57
1118.163,-39.02,-128.36,158.09
1118.17,-24.45,-123.93,190.51
1118.178,-38.89,-111.05,234.96
1118.186,-44.31,-101.0,262.69
1118.193,-19.81,-101.91,265.64
1118.201,-13.43,-102.14,259.93
1118.209,22.45,-91.09,248.67
1118.216,40.42,-80.09,221.28
1118.224,12.74,-79.38,178.09
1118.232,-18.27,-81.47,124.75
1118.24,-23.53,-80.03,62.52
1118.247,4.66,-77.34,-0.39
1118.255,26.94,-73.73,-51.75
1118.263,4.62,-70.6,-90.76
1118.27,-24.47,-72.44,-122.78
1118.278,-10.52,-76.28,-147.22
1118.286,22.27,-76.79,-161.43
1118.293,9.95,-78.73,-167.02
1118.301,-46.24,-82.44,-166.31
1118.309,-70.45,-75.4,-159.54
1118.316,-39.13,-60.19,-148.28
1118.324,-18.71,-57.04,-135.36
1118.332,-18.34,-65.13,-121.56
1118.34,22.87,-66.53,-109.82
1118.347,54.19,-62.72,-103.8
1118.355,-19.37,-62.49,-97.24
1118.363,-105.91,-60.02,-83.57
1118.37,-78.4,-55.79,-72.58
1118.378,-24.17,-58.54,-73.28
1118.386,-59.99,-60.79,-76.51
1118.393,-131.32,-54.19,-74.94
1118.401,-151.36,-49.34,-75.99
1118.409,-109.11,-51.29,-84.29
1118.416,-54.59,-51.87,-92.63
1118.424,-78.94,-52.45,-93.37
1118.432,-157.59,-51.18,-84.15
1118.44,-94.37,-53.96,-86.77
1118.447,220.66,-57.61,-90.41
1118.455,721.33,-53.91,-82.96
1118.463,1244.33,-42.32,-80.04
1118.47,1361.32,-29.89,-75.38
1118.478,688.33,-27.22,-64.81
1118.486,-257.58,-33.95,-57.05
1118.493,-530.75,-35.92,-56.13
1118.501,-224.31,-32.02,-51.25
1118.509,-122.59,-36.96,-31.43
1118.516,-249.97,-47.24,-5.52
1118.524,-194.96,-43.12,1.68
1118.532,-99.52,-29.52,-18.06
1118.54,-182.83,-29.26,-41.37
1118.547,-224.21,-35.38,-45.3
1118.555,-121.88,-14.12,-37.14
1118.563,-77.47,92.76,-33.46
1118.57,-116.99,396.55,-31.91
1118.578,-110.98,863.42,-28.19
1118.586,-84.13,1059.65,-26.63
1118.593,-91.52,611.93,-5.83
1118.601,-82.74,-69.02,86.15
1118.609,-54.17,-283.1,297.0
1118.616,-51.09,-99.46,618.56
1118.624,-36.2,-40.54,848.51
1118.632,15.22,-134.59,618.88
1118.64,27.34,-129.44,-79.4
1118.647,-5.39,-73.94,-620.69
1118.655,16.29,-87.84,-525.86
1118.663,75.53,-103.05,-142.8
1118.67,74.71,-80.4,5.97
1118.678,57.11,-70.5,-29.7
1118.686,90.07,-70.8,-9.72
1118.693,114.42,-55.77,31.03
1118.701,127.57,-39.73,21.07
1118.709,191.84,-29.68,20.32
1118.716,223.77,-14.36,46.81
1118.724,148.42,2.99,60.93
1118.732,91.35,15.02,64.7
1118.74,115.69,28.21,73.35
1118.747,99.98,50.51,85.85
1118.755,93.26,76.8,104.12
1118.763,87.67,97.63,122.68
1118.77,82.08,118.48,135.42
1118.778,76.49,151.13,155.59
1118.786,70.9,187.49,189.6
1118.793,65.3,209.46,225.47
1118.801,59.71,216.19,260.85
1118.809,54.12,215.94,295.54
1118.816,48.53,209.52,313.84
1118.824,42.94,196.83,310.99
1118.832,37.35,179.52,299.23
1118.84,31.76,153.22,275.41
1118.847,26.17,111.47,227.65
1118.855,20.58,56.62,163.75
1118.863,7.59,1.81,96.25
1118.87,-5.3,-39.96,25.13
1118.878,-11.93,-69.7,-44.37
1118.886,-60.15,-96.75,-98.65
1118.893,-114.33,-120.79,-134.87
1118.901,-126.8,-134.58,-158.41
1118.909,-97.73,-139.7,-171.48
1118.916,-69.27,-143.14,-179.11
1118.924,-77.95,-145.07,-187.14
1118.932,-104.4,-141.63,-189.9
1118.94,-111.17,-131.55,-180.17
1118.947,-106.85,-116.34,-164.5
1118.955,-114.4,-102.25,-150.6
1118.963,-130.02,-97.36,-134.12
1118.97,-148.25,-99.03,-112.87
1118.978,-162.2,-95.19,-96.66
1118.986,-148.67,-87.97,-91.29
1118.993,-112.51,-80.36,-90.03
1119.001,-91.23,-71.79,-86.87
1119.009,-90.71,-75.02,-77.03
1119.016,-94.77,-83.82,-66.2
1119.024,-102.12,-81.83,-63.98
1119.032,-95.72,-69.15,-63.98
1119.04,-67.06,-65.87,-58.63
1119.047,-57.79,-74.06,-57.21
1119.055,-73.34,-72.48,-64.83
1119.063,-55.73,-62.13,-69.14
1119.07,-9.55,-64.01,-65.67
1119.078,-3.63,-72.69,-65.67
1119.086,-36.92,-67.61,-71.65
1119.093,-46.83,-54.87,-75.62
1119.101,-15.65,-54.03,-76.94
1119.109,27.05,-63.7,-77.16
1119.116,50.92,-66.94,-73.3
1119.124,42.3,-58.17,-70.52
1119.132,23.28,-49.39,-75.45
1119.14,22.36,-48.61,-77.37
1119.147,22.72,-47.57,-67.86
1119.155,6.51,-43.61,-61.18
1119.163,-10.67,-45.73,-62.9
1119.17,-32.34,-46.95,-52.69
1119.178,-59.37,-34.79,-27.0
1119.186,-61.61,-25.44,-14.67
1119.193,-69.85,-34.13,-30.16
1119.201,-134.12,-40.38,-52.99
1119.209,-153.98,-31.35,-61.3
1119.216,25.08,-28.07,-56.11
1119.224,411.79,-37.17,-50.58
1119.232,901.15,-37.73,-48.73
1119.24,1229.74,-26.29,-45.74
1119.247,969.38,-18.99,-45.41
1119.255,140.89,-17.96,-38.83
1119.263,-474.42,-16.57,27.35
1119.27,-381.31,-16.21,200.56
1119.278,-93.74,-16.85,453.75
1119.286,-118.5,-16.34,657.84
1119.293,-205.13,-18.54,571.91
1119.301,-116.72,-21.57,71.21
1119.309,-56.47,-17.75,-487.33
1119.316,-105.63,-12.07,-566.15
1119.324,-111.92,-12.03,-228.77
1119.332,-68.19,-11.86,-6.3
1119.34,-70.86,-10.68,-39.66
1119.347,-102.2,-14.64,-66.12
1119.355,-93.65,-15.67,-20.29
1119.363,-48.12,-7.08,-10.02
1119.37,-18.16,-2.27,-14.99
1119.378,-17.88,-8.32,5.17
1119.386,-10.96,-14.57,13.46
1119.393,4.85,-15.7,14.06
1119.401,-2.87,-13.58,34.43
1119.409,-7.16,-6.47,51.66
1119.416,30.9,4.31,55.79
1119.424,80.91,11.87,72.39
1119.432,118.71,13.03,100.22
1119.44,114.54,12.21,119.48
1119.447,116.18,10.18,136.09
1119.455,147.21,-2.66,165.51
1119.463,161.27,-17.8,202.3
1119.47,131.51,-9.72,230.57
1119.478,105.4,1.74,250.3
1119.486,115.13,-12.64,269.14
1119.493,111.38,-2.0,271.0
1119.501,67.31,66.95,239.05
1119.509,33.48,131.39,200.52
1119.516,18.83,299.31,171.96
1119.524,-19.94,551.05,107.75
1119.532,-56.32,443.58,-10.18
1119.54,-49.59,81.2,-83.21
1119.547,-53.3,-179.32,-104.7
1119.555,-103.09,-147.4,-116.43
1119.563,-134.85,-69.23,-144.45
1119.57,-115.47,-59.45,-151.8
1119.578,-94.22,-76.51,-138.8
1119.586,-96.13,-59.85,-125.73
1119.593,-95.56,-38.15,-117.98
1119.601,-76.41,-34.81,-105.45
1119.609,-47.37,-34.14,-85.6
1119.616,-28.86,-24.28,-64.71
1119.624,-35.75,-7.56,-48.49
1119.632,-54.31,5.68,-39.8
1119.64,-58.2,15.44,-37.8
1119.647,-45.42,36.94,-38.9
1119.655,-34.56,69.19,-41.89
1119.663,-35.0,92.44,-47.3
1119.67,-36.44,106.05,-52.0
1119.678,-29.58,126.77,-53.35
1119.686,-24.06,154.02,-55.99
1119.693,-30.11,174.14,-63.95
1119.701,-45.62,184.75,-71.83
1119.709,-68.02,189.49,-74.58
1119.716,-85.37,187.8,-75.49
1119.724,-79.38,181.85,-77.81
1119.732,-61.11,174.45,-80.74
1119.74,-53.38,158.98,-82.98
1119.747,-50.25,128.5,-81.37
1119.755,-45.48,88.58,-75.61
1119.763,-49.9,48.59,-73.99
1119.77,-55.71,10.53,-79.75
1119.778,-41.5,-25.62,-83.72
1119.786,-5.16,-56.8,-82.59
1119.793,26.89,-80.92,-83.52
1119.801,15.88,-98.69,-85.08
1119.809,-21.92,-112.3,-75.97
1119.816,-11.92,-122.41,-54.98
1119.824,36.68,-123.29,-37.08
1119.832,28.19,-111.36,-36.65
1119.84,-29.25,-99.52,-50.67
1119.847,-48.46,-101.36,-64.96
1119.855,-38.17,-105.43,-71.6
1119.863,-42.83,-94.88,-71.64
1119.87,-58.18,-79.81,-68.99
1119.878,-98.97,-78.34,-65.78
1119.886,-137.46,-84.19,-61.41
1119.893,-39.5,-81.57,-60.33
1119.901,302.93,-73.91,-57.57
1119.909,863.86,-74.73,-10.24
1119.916,1323.08,-81.85,135.98
1119.924,1121.34,-81.92,404.62
1119.932,264.07,-75.86,735.29
1119.94,-420.83,-75.04,856.88
1119.947,-466.87,-76.77,444.94
1119.955,-250.58,-72.26,-293.78
1119.963,-178.84,-68.01,-641.74
1119.97,-316.27,-72.13,-368.76
1119.978,-277.5,-79.06,-43.59
1119.986,-179.93,-82.61,-42.26
1119.993,-158.23,-80.23,-105.72
1120.001,-158.9,-69.7,-45.69
1120.009,-133.87,-59.98,-13.49
1120.016,-89.08,-61.5,-46.23
1120.024,-74.65,-64.52,-23.94
1120.032,-88.44,-59.87,33.2
1120.04,-85.11,-58.76,39.08
1120.047,-65.3,-63.87,26.22
1120.055,-49.66,-61.17,47.84
1120.063,-25.95,-53.11,77.39
1120.07,4.2,-53.06,87.98
1120.078,27.83,-54.02,98.51
1120.086,66.41,-54.97,123.43
1120.093,111.83,-55.92,142.98
1120.101,113.99,-56.87,154.62
1120.109,95.43,-57.82,166.26
1120.116,113.55,-58.77,194.49
1120.124,128.95,-59.72,232.46
1120.132,96.79,-60.68,275.37
1120.14,79.38,-61.83,317.14
1120.147,104.55,-58.48,343.9
1120.155,87.54,-53.0,353.64
1120.163,7.05,-48.09,349.23
1120.17,-47.36,-44.9,320.55
1120.178,-50.98,-45.25,269.63
1120.186,-60.45,-45.71,216.3
1120.193,-73.91,-40.67,156.72
1120.201,-62.95,-34.63,75.36
1120.209,-62.02,-37.69,-9.02
1120.216,-77.46,-47.09,-67.95
1120.224,-56.1,-50.79,-103.06
1120.232,-22.57,-46.43,-126.16
1120.24,-39.39,-39.28,-138.75
1120.247,-54.8,-32.06,-142.99
1120.255,-15.22,-29.14,-143.75
1120.263,7.52,-32.34,-143.19
1120.27,-22.93,-32.26,-143.16
1120.278,-29.89,-24.54,-142.07
1120.286,9.64,-20.84,-133.9
1120.293,28.92,-26.73,-119.44
1120.301,3.26,-31.58,-105.58
1120.309,-23.86,-30.51,-93.52
1120.316,-20.14,-30.84,-82.7
1120.324,-9.53,-33.06,-75.13
1120.332,-28.95,-31.29,-68.03
1120.34,-45.87,-29.73,-59.85
1120.347,-2.31,-32.89,-59.29
1120.355,51.14,-31.06,-69.26
1120.363,26.4,-19.71,-77.4
1120.37,-23.39,-11.79,-77.51
1120.378,-10.15,-14.86,-79.0
1120.386,12.25,-21.45,-86.8
1120.393,-10.5,-25.44,-93.63
1120.401,-15.87,-26.14,-95.84
1120.409,13.24,-22.86,-99.34
1120.416,17.85,-18.16,-107.35
1120.424,15.28,-18.13,-112.23
1120.432,54.87,-23.41,-104.83
1120.44,92.25,-25.05,-91.6
1120.447,70.39,-16.15,-90.57
1120.455,25.13,-3.66,-102.33
1120.463,8.75,3.6,-105.02
1120.47,6.78,7.16,-92.13
1120.478,2.76,5.18,-85.42
1120.486,16.73,-9.3,-92.28
1120.493,26.72,-26.59,-90.77
1120.501,-9.83,-28.6,-74.16
1120.509,-18.56,-19.32,-63.71
1120.516,-23.63,-17.54,-66.94
1120.524,-28.69,-22.74,-69.34
1120.532,-33.76,-16.29,-65.96
1120.54,-38.83,13.55,-61.02
1120.547,-43.89,118.19,-49.03
1120.555,-48.96,422.83,-29.75
1120.563,-54.03,881.12,-20.65
1120.57,-56.72,1053.03,-29.64
1120.578,-42.79,606.87,-43.47
1120.586,12.39,-40.58,-53.38
1120.593,157.56,-248.6,-59.76
1120.601,470.06,-93.05,-59.8
1120.609,884.85,-41.71,-55.94
1120.616,1106.92,-121.72,-55.07
1120.624,793.36,-117.11,-56.32
1120.632,54.05,-71.27,-52.9
1120.64,-447.3,-87.3,-15.41
1120.647,-348.65,-101.92,115.69
1120.655,-86.78,-75.98,369.58
1120.663,-71.56,-59.2,665.67
1120.67,-124.59,-59.24,754.8
1120.678,-72.05,-49.22,758.48
1120.686,-42.14,-31.83,762.17
1120.693,-68.46,-21.84,765.86
1120.701,-63.79,-16.76,769.54
1120.709,-59.51,-13.49,773.23
1120.716,-96.04,-6.93,360.05
1120.724,-112.9,14.76,-328.92
1120.732,-86.67,40.73,-652.19
1120.74,-65.7,55.87,-379.36
1120.747,-62.54,73.96,-29.49
1120.755,-53.03,103.52,12.86
1120.763,-37.26,128.94,-37.12
1120.77,-19.3,153.27,8.54
1120.778,9.95,188.61,36.43
1120.786,27.76,212.04,12.74
1120.793,5.89,208.18,18.08
1120.801,-10.97,208.8,38.15
1120.809,30.82,227.02,40.96
1120.816,85.9,227.7,51.83
1120.824,93.24,199.5,67.63
1120.832,83.95,169.59,70.21
1120.84,96.84,141.76,78.67
1120.847,111.43,98.03,101.61
1120.855,117.86,45.27,122.94
1120.863,118.84,2.67,145.7
1120.87,94.25,-31.21,179.59
1120.878,57.41,-63.85,216.78
1120.886,42.86,-89.74,251.43
1120.893,28.14,-105.89,282.21
1120.901,-10.89,-118.45,300.02
1120.909,-38.07,-126.31,301.26
1120.916,-34.11,-124.36,290.93
1120.924,-31.9,-118.08,267.3
1120.932,-46.98,-113.76,226.08
1120.94,-60.11,-109.66,171.54
1120.947,-61.96,-105.51,110.07
1120.955,-62.5,-100.95,41.52
1120.963,-69.27,-91.68,-33.8
1120.97,-78.79,-83.81,-98.88
1120.978,-81.32,-88.96,-130.14
1120.986,-72.67,-96.87,-136.22
1120.993,-65.57,-88.46,-151.3
1121.001,-72.99,-73.04,-177.93
1121.009,-82.49,-70.46,-187.76
1121.016,-78.89,-74.32,-177.47
1121.024,-73.86,-73.45,-166.66
1121.032,-78.32,-75.96,-157.37
1121.04,-81.23,-84.21,-141.34
1121.047,-76.47,-86.32,-122.2
1121.055,-70.07,-81.21,-106.2
1121.063,-64.42,-78.17,-91.69
1121.07,-60.51,-80.37,-78.48
1121.078,-57.48,-83.54,-75.52
1121.086,-48.59,-78.51,-82.65
1121.093,-44.91,-63.04,-80.03
1121.101,-37.75,-53.52,-66.29
1121.109,-30.3,-61.98,-70.27
1121.116,-4.53,-73.13,-89.95
1121.124,35.08,-68.77,-89.21
1121.132,68.04,-56.32,-76.09
1121.14,27.96,-53.78,-87.92
1121.147,-3.81,-61.14,-105.39
1121.155,6.46,-62.67,-89.59
1121.163,2.37,-53.89,-69.88
1121.17,-33.43,-49.19,-88.54
1121.178,-63.4,-55.48,-111.74
1121.186,-81.92,-59.04,-93.3
1121.193,-93.96,-50.87,-62.5
1121.201,-98.23,-41.56,-64.24
1121.209,-125.82,-39.57,-79.47
1121.216,-155.92,-40.08,-72.04
1121.224,-62.13,-40.08,-51.4
1121.232,236.59,-38.2,-43.01
1121.24,688.86,-35.57,-40.05
1121.247,1080.36,-38.99,-36.54
1121.255,990.81,-40.18,-36.05
1121.263,270.29,-24.87,-34.0
1121.27,-446.01,-21.23,-25.71
1121.278,-507.95,-25.16,-15.0
1121.286,-228.22,-30.04,5.98
1121.293,-188.85,-30.5,27.28
1121.301,-286.14,-26.31,29.28
1121.309,-244.06,-18.49,14.35
1121.316,-177.85,-5.62,0.84
1121.324,-192.97,29.66,-4.93
1121.332,-191.98,176.94,-3.06
1121.34,-156.68,553.29,9.02
1121.347,-141.35,996.27,23.66
1121.355,-131.49,1004.72,27.73
1121.363,-112.71,423.52,24.49
1121.37,-102.54,-149.9,39.86
1121.378,-92.0,-208.9,121.18
1121.386,-71.2,-43.72,323.36
1121.393,-56.65,-61.45,634.42
1121.401,-48.0,-143.77,852.33
1121.409,-30.44,-109.46,636.2
1121.416,-14.97,-67.28,-61.38
1121.424,-12.2,-88.83,-687.16
1121.432,-3.67,-96.06,-673.6
1121.44,21.38,-73.7,-233.94
1121.447,49.65,-62.58,21.77
1121.455,68.55,-57.78,1.21
1121.463,70.76,-47.99,-4.03
1121.47,60.54,-39.78,49.43
1121.478,59.2,-29.23,50.21
1121.486,71.66,-14.95,33.68
1121.493,78.56,-5.6,48.45
1121.501,75.52,2.09,59.48
1121.509,72.14,17.9,60.64
1121.516,65.59,39.45,69.59
1121.524,52.07,60.92,75.7
1121.532,34.04,86.0,79.23
1121.54,10.03,118.67,94.32
1121.547,-13.99,151.28,116.49
1121.555,-25.85,173.77,140.03
1121.563,-29.77,187.73,169.75
1121.57,-36.0,197.99,204.88
1121.578,-42.69,200.21,240.41
1121.586,-45.82,192.34,271.93
1121.593,-40.67,182.2,293.37
1121.601,-23.01,168.39,302.48
1121.609,-1.62,136.73,299.67
1121.616,-3.02,87.41,281.49
1121.624,-5.93,39.56,244.61
1121.632,-10.64,2.19,189.75
1121.64,-4.42,-34.15,121.92
1121.647,-12.46,-73.02,49.53
1121.655,-13.37,-103.09,-21.21
1121.663,-19.18,-118.03,-84.05
1121.67,-36.89,-125.66,-130.41
1121.678,-48.6,-132.84,-160.08
1121.686,-42.95,-137.31,-179.26
1121.693,-32.9,-135.93,-189.38
1121.701,-27.17,-129.22,-194.23
1121.709,-25.69,-119.85,-197.5
1121.716,-33.44,-111.99,-190.67
1121.724,-42.43,-106.91,-172.63
1121.732,-24.55,-100.18,-160.53
1121.74,27.19,-89.85,-156.82
1121.747,72.22,-81.73,-145.11
1121.755,68.98,-79.1,-126.35
1121.763,37.38,-76.9,-113.53
1121.77,29.15,-73.39,-102.24
1121.778,42.89,-72.96,-86.15
1121.786,37.3,-74.11,-75.83
1121.793,12.31,-74.15,-75.7
1121.801,-4.36,-74.19,-75.57
1121.809,-12.44,-74.23,-75.45
1121.816,-17.12,-74.27,-75.32
1121.824,-22.94,-74.32,-75.42
1121.832,-58.06,-74.36,-72.1
1121.84,-95.02,-74.4,-69.62
1121.847,2.52,-74.44,-72.15
1121.855,344.91,-74.48,-76.79
1121.863,876.39,-74.52,-83.24
1121.87,1311.71,-74.56,-90.96
1121.878,1198.53,-74.61,-94.15
1121.886,428.12,-74.65,-93.1
1121.893,-354.16,-74.69,-93.43
1121.901,-497.87,-74.73,-91.61
1121.909,-259.27,-74.77,-83.71
1121.916,-210.18,-72.89,-80.82
1121.924,-310.03,-69.48,-91.33
1121.932,-290.01,-66.09,-100.98
1121.94,-228.11,-63.8,-94.86
1121.947,-239.19,-66.62,-82.94
1121.955,-241.56,-71.57,-78.92
1121.963,-205.99,-68.0,-74.64
1121.97,-188.98,-57.97,-63.54
1121.978,-180.93,-54.7,-60.66
1121.986,-157.63,-58.45,-70.05
1121.993,-141.63,-58.36,-71.47
1122.001,-136.72,-51.79,-61.43
1122.009,-120.76,-44.89,-58.56
1122.016,-95.72,-42.94,-59.81
1122.024,-75.65,-45.25,-43.93
1122.032,-58.84,-45.0,-14.56
1122.04,-40.75,-38.51,3.25
1122.047,-23.21,-31.69,-1.84
1122.055,-3.9,-30.94,-20.29
1122.063,22.92,-35.3,-36.07
1122.07,55.97,-39.39,-40.18
1122.078,85.3,-38.74,-38.23
1122.086,101.83,-34.32,-38.31
1122.093,108.47,-31.16,-35.08
1122.101,113.79,-30.62,-26.27
1122.109,116.18,-29.92,-23.98
1122.116,111.32,-27.63,-14.26
1122.124,104.24,-24.34,58.12
1122.132,94.79,-22.63,234.79
1122.14,74.87,-25.6,499.81
1122.147,50.41,-30.62,719.31
1122.155,33.76,-31.37,607.33
1122.163,26.52,-27.13,42.84
1122.17,22.3,-22.42,-541.32
1122.178,18.08,-20.78,-589.27
1122.186,9.15,-22.4,-223.81
1122.193,-16.12,-22.95,8.02
1122.201,-46.75,-19.04,-7.65
1122.209,-77.31,-14.87,-15.92
1122.216,-92.44,-14.2,31.19
1122.224,-84.11,-13.96,32.75
1122.232,-68.51,-13.83,17.15
1122.24,-60.22,-15.96,33.92
1122.247,-56.57,-15.21,50.26
1122.255,-53.86,-8.25,49.36
1122.263,-49.49,-2.48,51.27
1122.27,-38.73,-3.35,61.08
1122.278,-25.27,-8.13,72.46
1122.286,-18.52,-12.78,83.13
1122.293,-20.45,-12.42,101.66
1122.301,-25.06,-7.59,138.31
1122.309,-25.52,-8.81,173.68
1122.316,-20.7,-15.62,158.72
1122.324,-15.02,-11.4,135.93
1122.332,-11.84,2.92,113.73
1122.34,-12.83,6.48,103.5
1122.347,-17.56,-2.38,95.09
1122.355,-19.58,-6.43,76.76
1122.363,-15.87,-3.22,71.52
1122.37,-15.71,-5.84,61.71
1122.378,-24.7,-8.64,-35.92
1122.386,-33.88,-6.02,-169.36
1122.393,-36.76,-2.71,-198.98
1122.401,-38.08,-6.95,-165.04
1122.409,-36.06,25.07,-158.34
1122.416,-12.96,164.7,-158.67
1122.424,37.35,400.55,-139.2
1122.432,76.02,571.05,-122.12
1122.44,56.64,431.25,-111.37
1122.447,6.08,35.11,-96.56
1122.455,-7.58,-150.2,-81.76
1122.463,9.86,-30.89,-70.53
1122.47,1.71,-50.6,-62.11
1122.478,-27.94,-106.61,-58.06
1122.486,-40.98,-108.49,-57.4
1122.493,-41.98,-82.79,-58.3
1122.501,-44.94,-88.01,-61.78
1122.509,-54.52,-94.65,-67.18
1122.516,-88.33,-72.4,-72.38
1122.524,-105.21,-58.15,-75.91
1122.532,23.35,-59.6,-75.47
1122.54,379.91,-47.37,-72.44
1122.547,892.47,-29.64,-72.42
1122.555,1263.09,-25.46,-74.44
1122.563,1042.07,-23.47,-72.43
1122.57,211.9,-13.8,-67.96
1122.578,-481.31,-2.14,-65.95
1122.586,-474.87,9.59,-64.63
1122.593,-195.44,22.95,-61.04
1122.601,-186.04,40.26,-54.36
1122.609,-277.6,66.1,-42.29
1122.616,-227.74,95.89,-28.11
1122.624,-186.66,118.61,-21.87
1122.632,-223.72,134.94,-23.26
1122.64,-215.51,150.88,-22.08
1122.647,-171.32,161.72,-19.4
1122.655,-164.31,161.95,-23.49
1122.663,-163.27,159.06,-30.05
1122.67,-141.25,162.77,-30.63
1122.678,-124.39,166.52,-28.75
1122.686,-113.23,153.2,-29.22
1122.693,-93.86,120.57,-25.26
1122.701,-74.41,83.67,-8.83
1122.709,-59.03,49.12,13.4
1122.716,-40.23,11.13,22.84
1122.724,-19.69,-27.37,10.96
1122.732,-1.99,-57.22,-8.35
1122.74,14.53,-81.29,-16.81
1122.747,25.33,-104.85,-13.92
1122.755,37.54,-119.75,-11.84
1122.763,58.1,-119.66,-14.94
1122.77,76.92,-116.04,-16.46
1122.778,96.2,-119.6,-14.39
1122.786,111.54,-122.34,-8.33
1122.793,120.71,-114.81,26.86
1122.801,125.49,-103.42,139.7
1122.809,125.33,-95.8,373.28
1122.816,121.92,-89.48,693.75
1122.824,112.2,-83.54,851.07
1122.832,84.29,-80.91,501.81
1122.84,44.67,-79.98,-229.68
1122.847,16.85,-79.24,-661.76
1122.855,1.37,-79.73,-462.04
1122.863,-18.35,-78.39,-104.24
1122.87,-41.84,-73.55,-6.92
1122.878,-59.76,-70.52,-9.94
1122.886,-69.56,-71.37,-12.97
1122.893,-70.38,-66.58,-16.0
1122.901,-65.02,-68.36,-19.03
1122.909,-58.06,-69.73,-22.06
1122.916,-48.44,-67.26,-25.08
1122.924,-39.13,-66.17,-28.11
1122.932,-35.99,-65.97,-34.92
1122.94,-33.04,-62.7,-65.52
1122.947,-28.75,-59.46,2.3
1122.955,-38.28,-62.58,11.58
1122.963,-59.99,-64.46,-6.62
1122.97,-68.79,-56.35,26.2
1122.978,-60.36,-48.51,45.39
1122.986,-54.6,-50.34,30.8
1122.993,-55.46,-53.41,40.4
1123.001,-51.54,-50.19,65.6
1123.009,-43.22,-44.6,71.1
1123.016,-38.04,-42.48,75.61
1123.024,-36.33,-44.33,97.8
1123.032,-35.85,-44.37,123.0
1123.04,-35.77,-40.22,145.25
1123.047,-33.27,-39.38,176.23
1123.055,-26.82,-44.59,216.51
1123.063,-20.23,-46.95,255.8
1123.07,-18.0,-40.97,290.78
1123.078,-21.1,-31.0,318.1
1123.086,-24.35,-24.15,327.02
1123.093,-10.7,-25.12,313.81
1123.101,34.32,-32.19,282.1
1123.109,84.51,-36.92,231.43
1123.116,87.27,-31.95,164.72
1123.124,45.33,-22.47,89.67
1123.132,21.68,-23.76,9.31
1123.14,33.39,-35.33,-67.35
1123.147,32.09,-35.86,-122.94
1123.155,5.7,-21.4,-155.08
1123.163,-11.52,-14.15,-176.01
1123.17,-16.12,-20.36,-191.06
1123.178,-22.36,-22.62,-198.71
1123.186,-32.47,-16.02,-199.34
1123.193,-64.82,-13.79,-194.46
1123.201,-94.84,-22.22,-188.07
1123.209,3.97,-30.37,-184.3
1123.216,338.06,-22.62,-179.51
1123.224,866.96,-2.18,-166.96
1123.232,1318.87,9.02,-149.09
1123.24,1200.1,5.58,-134.24
1123.247,374.11,5.29,-122.52
1123.255,-436.69,8.97,-107.61
1123.263,-534.54,-1.46,-91.29
1123.27,-197.23,-19.16,-80.54
1123.278,-198.04,-17.7,-73.97
1123.286,-231.23,-2.48,-67.89
1123.293,-176.41,-4.3,-65.31
1123.301,-151.38,-18.97,-66.93
1123.309,-161.7,-11.19,-69.18
1123.316,-110.38,47.92,-71.12
1123.324,-103.62,244.67,-69.33
1123.332,-109.4,669.57,-61.57
1123.34,-90.38,1067.17,-58.01
1123.347,-61.56,908.16,-63.59
1123.355,-52.01,221.01,-66.03
1123.363,-56.28,-252.59,-62.54
1123.37,-48.02,-169.87,-63.87
1123.378,-20.07,-4.47,-66.73
1123.386,10.19,-70.21,-63.22
1123.393,35.12,-133.86,-60.01
1123.401,59.39,-79.76,-57.56
1123.409,69.72,-58.25,-47.13
1123.416,54.6,-83.24,-38.27
1123.424,39.57,-71.42,-44.09
1123.432,49.32,-49.89,-51.74
1123.44,65.54,-52.35,-47.05
1123.447,63.35,-52.65,-39.91
1123.455,47.8,-51.51,-40.42
1123.463,30.22,-50.36,-30.12
1123.47,10.45,-49.22,-25.74
1123.478,-8.73,-48.07,-28.49
1123.486,-22.64,-46.92,-29.03
1123.493,-37.09,-45.78,-22.3
1123.501,-55.82,-40.33,-22.94
1123.509,-68.15,-23.06,-27.56
1123.516,-66.65,-18.64,-27.87
1123.524,-57.9,-10.6,-20.05
1123.532,-48.01,9.2,-16.42
1123.54,-40.05,24.72,-13.19
1123.547,-38.93,33.5,39.13
1123.555,-40.52,49.13,198.07
1123.563,-37.15,72.23,492.05
1123.57,-34.63,93.17,830.19
1123.578,-36.97,112.04,865.3
1123.586,-36.35,135.19,311.42
1123.593,-34.36,163.02,-436.25
1123.601,-37.54,190.28,-640.53
1123.609,-38.25,210.23,-296.7
1123.616,-30.86,218.14,-34.39
1123.624,-22.59,216.4,-53.82
1123.632,-17.9,210.59,-70.06
1123.64,-17.22,198.53,-11.29
1123.647,-20.62,173.43,-0.84
1123.655,-21.71,134.7,-13.37
1123.663,-15.68,86.34,7.26
1123.67,-7.53,36.45,22.47
1123.678,-3.29,-1.57,21.66
1123.686,-5.2,-28.77,31.63
1123.693,-12.23,-63.92,44.35
1123.701,-19.41,-103.64,50.92
1123.709,-18.29,-120.87,62.98
1123.716,5.56,-118.75,80.89
1123.724,54.29,-125.49,101.49
1123.732,89.29,-137.91,131.63
1123.74,74.07,-136.58,170.82
1123.747,41.58,-129.46,209.56
1123.755,41.87,-124.93,244.49
1123.763,55.64,-112.26,279.57
1123.77,42.58,-97.67,312.35
1123.778,13.69,-96.27,326.57
1123.786,-6.96,-94.57,312.5
1123.793,-14.77,-80.99,281.86
1123.801,-6.84,-73.65,241.16
1123.809,-12.34,-78.83,178.52
1123.816,-74.37,-79.67,94.29
1123.824,-120.27,-74.73,9.3
1123.832,-107.36,-74.26,-62.09
1123.84,-80.3,-76.44,-118.18
1123.847,-53.23,-77.9,-157.87
1123.855,-26.17,-78.38,-181.69
1123.863,0.9,-74.46,-196.28
1123.87,27.96,-70.1,-207.17
1123.878,55.03,-72.01,-211.35
1123.886,312.6,-73.47,-206.47
1123.893,865.25,-68.59,-201.9
1123.901,1323.01,-63.85,-202.79
1123.909,1213.72,-62.0,-196.86
1123.916,424.89,-59.67,-179.55
1123.924,-391.67,-57.41,-164.67
1123.932,-561.24,-55.69,-153.93
1123.94,-310.89,-53.62,-137.07
1123.947,-223.94,-52.58,-120.66
1123.955,-302.08,-51.96,-113.85
1123.963,-292.42,-49.98,-107.09
1123.97,-253.12,-48.77,-95.22
1123.978,-274.82,-50.21,-87.87
1123.986,-269.85,-51.56,-86.35
1123.993,-223.45,-49.31,-83.85
1124.001,-205.11,-44.59,-81.98
1124.009,-201.1,-41.21,-81.89
1124.016,-179.73,-38.68,-82.22
1124.024,-161.93,-35.17,-82.55
1124.032,-151.15,-33.72,-82.88
1124.04,-128.53,-37.1,-83.21
1124.047,-100.84,-44.77,-83.55
1124.055,-81.02,-51.89,-83.88
1124.063,-64.71,-50.24,-84.21
1124.07,-46.98,-48.58,-84.5
1124.078,-27.29,-33.76,-83.69
1124.086,-2.6,-20.82,-77.8
1124.093,26.13,-25.61,-70.97
1124.101,50.31,-34.13,-67.18
1124.109,63.22,-31.86,-67.69
1124.116,68.24,-25.95,-68.89
1124.124,75.63,-22.02,-67.26
1124.132,89.55,-17.72,-68.39
1124.14,101.46,-17.17,-76.05
1124.147,103.05,-21.52,-76.81
1124.155,97.44,-21.74,-60.5
1124.163,89.62,-16.35,-44.02
1124.17,77.58,-15.41,-44.45
1124.178,60.08,-22.39,-50.7
1124.186,40.28,-27.53,-49.28
1124.193,19.14,-22.37,-46.9
1124.201,-3.66,-13.0,-49.96
1124.209,-24.33,-10.57,-52.68
1124.216,-37.71,-13.87,-50.34
1124.224,-42.06,-15.7,-42.78
1124.232,-39.86,-18.16,-27.55
1124.24,-35.44,-23.18,-3.55
1124.247,-30.54,-21.56,16.36
1124.255,-25.08,-8.51,12.47
1124.263,-20.66,5.17,-10.1
1124.27,-16.8,9.4,-24.08
1124.278,-10.49,7.39,-23.75
1124.286,-3.68,5.03,-24.84
1124.293,-0.7,-0.13,-26.64
1124.301,-0.69,-9.95,-19.8
1124.309,-1.04,-14.47,-14.58
1124.316,-0.68,-8.06,-18.42
1124.324,0.96,-5.41,1.94
1124.332,1.98,-12.73,100.72
1124.34,0.86,-13.5,316.17
1124.347,-1.17,14.69,657.08
1124.355,-5.87,165.9,965.46
1124.363,-14.12,571.44,826.59
1124.37,-18.45,1033.49,85.58
1124.378,-14.99,999.67,-617.72
1124.386,-11.27,373.39,-596.74
1124.393,-11.95,-165.67,-160.22
1124.401,-13.56,-175.36,2.66
1124.409,-15.13,-28.26,-79.32
1124.416,-18.3,-71.12,-57.77
1124.424,-15.34,-133.9,10.91
1124.432,9.82,-91.95,-10.97
1124.44,37.87,-70.5,-26.79
1124.447,51.77,-91.27,9.21
1124.455,65.67,-80.52,24.2
1124.463,78.54,-59.69,19.85
1124.47,78.54,-61.12,34.44
1124.478,48.25,-58.99,52.39
1124.486,32.52,-44.64,59.98
1124.493,23.36,-32.58,69.44
1124.501,-5.37,-23.35,86.64
1124.509,-33.94,-13.98,114.7
1124.516,-51.36,-4.72,155.3
1124.524,-73.61,6.07,197.7
1124.532,-80.99,18.17,236.01
1124.54,-68.06,33.45,276.4
1124.547,-93.53,56.48,314.24
1124.555,-134.88,84.66,335.58
1124.563,-31.93,112.58,337.88
1124.57,321.44,139.59,322.64
1124.578,870.0,161.71,284.78
1124.586,1343.69,171.22,225.49
1124.593,1227.18,166.67,154.11
1124.601,360.48,152.24,75.43
1124.609,-475.39,122.02,-7.48
1124.616,-527.82,98.18,-83.53
1124.624,-217.09,85.75,-133.53
1124.632,-222.96,-2.29,-138.62
1124.64,-354.03,-87.35,-143.71
1124.647,-281.79,-101.34,-148.79
1124.655,-206.47,-98.59,-153.88
1124.663,-249.09,-118.13,-158.96
1124.67,-246.89,-124.64,-164.05
1124.678,-195.77,-114.0,-179.9
1124.686,-190.17,-107.39,-197.15
1124.693,-188.34,-105.01,-209.05
1124.701,-157.6,-107.95,-206.25
1124.709,-141.11,-110.23,-198.87
1124.716,-136.12,-93.42,-197.89
1124.724,-116.34,-70.1,-192.69
1124.732,-94.98,-67.84,-173.45
1124.74,-79.62,-73.03,-149.09
1124.747,-58.65,-62.82,-129.06
1124.755,-36.04,-54.17,-114.34
1124.763,-19.41,-61.79,-105.54
1124.77,-2.31,-65.9,-99.71
1124.778,20.25,-59.22,-90.54
1124.786,46.13,-61.7,-79.38
1124.793,72.51,-72.11,-70.85
1124.801,93.76,-68.24,-63.19
1124.809,105.22,-56.9,-56.16
1124.816,110.35,-61.99,-54.18
1124.824,114.77,-72.4,-56.1
1124.832,118.47,-63.3,-57.46
1124.84,117.44,-48.6,-57.95
1124.847,108.0,-51.91,-56.52
1124.855,88.88,-59.82,-52.88
1124.863,60.04,-56.13,-52.09
1124.87,24.71,-53.84,-53.18
1124.878,-6.12,-59.76,-50.06
1124.886,-24.42,-62.42,-49.31
1124.893,-37.56,-60.1,-58.04
1124.901,-52.72,-55.64,-63.62
1124.909,-62.81,-47.76,-56.25
1124.916,-61.69,-46.26,-48.33
1124.924,-53.59,-54.65,-48.86
1124.932,-43.91,-54.78,-49.54
1124.94,-36.81,-44.6,-47.39
1124.947,-34.5,-45.19,-49.43
1124.955,-33.34,-55.42,-53.59
1124.963,-29.26,-55.58,-52.97
1124.97,-21.35,-46.57,-49.54
1124.978,-11.79,-42.38,-41.22
1124.986,-11.98,-45.33,-18.66
1124.993,-29.81,-47.82,8.1
1125.001,-47.88,-44.79,11.65
1125.009,-46.57,-41.98,-12.45
1125.016,-36.11,-45.13,-36.34
1125.024,-33.08,-46.24,-38.19
1125.032,-31.54,-41.28,-29.74
1125.04,-30.75,-40.03,-31.22
1125.047,-32.3,-42.38,-34.38
1125.055,-34.57,-39.36,-25.84
1125.063,-32.06,-35.66,-21.28
1125.07,-24.31,-38.79,-14.8
1125.078,-17.9,-43.09,55.14
1125.086,-23.45,-41.97,244.39
1125.093,-42.75,-37.42,571.94
1125.101,-59.82,-36.25,917.32
1125.109,-62.41,-41.77,876.38
1125.116,-52.09,-44.82,206.37
1125.124,-23.07,-36.87,-529.54
1125.132,19.06,-29.16,-588.46
1125.14,33.58,-31.78,-185.77
1125.147,8.57,-32.8,-12.02
1125.155,-5.24,-29.13,-95.85
1125.163,12.74,-25.13,-99.5
1125.17,18.27,-23.26,-33.74
1125.178,-5.76,-27.33,-22.34
1125.186,-29.2,-26.23,3.72
1125.193,-38.68,-24.84,25.92
1125.201,-36.16,-32.17,38.13
1125.209,-28.03,-41.39,52.46
1125.216,-47.31,-42.32,92.16
1125.224,-85.33,-35.22,98.13
1125.232,-25.7,-27.0,254.22
1125.24,254.46,-20.37,312.87
1125.247,758.13,-7.32,332.98
1125.255,1265.76,11.93,339.22
1125.263,1299.54,11.06,326.7
1125.27,607.82,-22.39,301.26
1125.278,-244.25,-48.63,269.47
1125.286,-488.18,-32.74,208.62
1125.293,-253.14,-3.51,114.21
1125.301,-161.76,1.15,21.28
1125.309,-259.19,-6.8,-49.66
1125.316,-254.73,-4.19,-108.66
1125.324,-193.2,8.03,-157.51
1125.332,-206.16,73.26,-185.81
1125.34,-214.55,340.84,-197.67
1125.347,-176.01,834.5,-207.01
1125.355,-157.62,1117.16,-216.32
1125.363,-164.38,711.99,-218.3
1125.37,-163.41,-23.88,-209.6
1125.378,-158.09,-284.31,-195.89
1125.386,-147.76,-69.97,-185.22
1125.393,-124.8,11.11,-176.75
1125.401,-100.33,-111.83,-163.29
1125.409,-81.5,-118.02,-146.61
1125.416,-64.46,-43.93,-135.53
1125.424,-49.55,-55.72,-129.48
1125.432,-33.4,-76.07,-121.8
1125.44,-8.88,-43.92,-113.13
1125.447,20.26,-33.58,-105.77
1125.455,46.24,-49.91,-96.13
1125.463,67.41,-38.99,-86.17
1125.47,83.17,-11.05,-86.65
1125.478,95.35,2.42,-96.82
1125.486,108.93,6.26,-100.82
1125.493,118.06,14.27,-94.22
1125.501,108.72,29.06,-89.67
1125.509,83.36,45.69,-90.37
1125.516,60.94,57.1,-87.02
1125.524,49.14,67.63,-81.06
1125.532,38.45,87.98,-80.91
1125.54,22.63,112.6,-81.99
1125.547,4.09,131.64,-77.0
1125.555,-16.99,154.27,-72.15
1125.563,-39.69,185.63,-73.44
1125.57,-58.83,208.66,-74.74
1125.578,-57.01,214.07,-70.34
1125.586,-52.63,210.4,-64.29
1125.593,-55.84,202.37,-64.06
1125.601,-54.67,192.09,-71.2
1125.609,-42.92,178.94,-78.15
1125.616,-29.88,149.18,-77.45
1125.624,-23.93,99.78,-71.56
1125.632,-28.09,53.26,-63.94
1125.64,-43.31,21.34,-47.42
1125.647,-56.61,-9.63,-18.77
1125.655,-52.23,-46.17,4.81
1125.663,-39.03,-77.78,6.17
1125.67,-35.48,-98.79,-7.8
1125.678,-40.12,-112.82,-21.57
1125.686,-42.32,-120.41,-28.69
1125.693,-40.23,-119.71,-27.0
1125.701,-35.51,-115.8,-19.69
1125.709,-29.66,-113.87,-12.82
1125.716,-26.29,-108.5,-8.08
1125.724,-26.04,-106.86,-10.7
1125.732,-25.26,-105.42,-8.78
1125.74,-21.99,-103.99,2.32
1125.747,-17.69,-102.55,15.81
1125.755,-14.16,-101.12,29.3
1125.763,-12.34,-99.68,42.78
1125.77,-14.31,-98.25,56.27
1125.778,-20.48,-96.44,90.68
1125.786,-16.81,-90.89,303.7
1125.793,17.3,-89.06,664.39
1125.801,67.0,-79.37,1045.84
1125.809,83.69,-68.62,991.22
1125.816,59.93,-68.61,235.62
1125.824,44.51,-69.82,-569.78
1125.832,53.25,-65.31,-604.58
1125.84,47.37,-65.11,-152.21
1125.847,17.1,-67.75,11.02
1125.855,-6.11,-63.97,-95.35
1125.863,-12.83,-63.1,-76.83
1125.87,-14.09,-70.59,-2.51
1125.878,-20.44,-68.84,-28.44
1125.886,-53.62,-54.39,-40.36
1125.893,-90.77,-50.1,2.51
1125.901,-14.83,-61.58,11.93
1125.909,285.92,-68.01,5.89
1125.916,795.27,-61.26,30.49
1125.924,1277.87,-54.46,51.05
1125.932,1272.44,-54.55,52.66
1125.94,564.39,-55.07,64.03
1125.947,-277.57,-52.51,88.63
1125.955,-510.07,-52.14,114.56
1125.963,-268.93,-55.76,143.4
1125.97,-174.76,-55.76,178.96
1125.978,-282.05,-50.85,223.37
1125.986,-294.46,-49.82,274.49
1125.993,-235.46,-47.81,318.47
1126.001,-236.59,-34.04,343.67
1126.009,-239.08,-24.28,349.3
1126.016,-206.42,-34.75,331.8
1126.024,-189.77,-46.01,288.63
1126.032,-181.71,-41.53,231.02
1126.04,-158.84,-34.86,166.05
1126.047,-142.58,-33.94,85.73
1126.055,-134.88,-33.66,-5.62
1126.063,-117.15,-35.69,-84.39
1126.07,-96.04,-38.37,-139.38
1126.078,-83.51,-35.92,-178.21
1126.086,-75.74,-32.42,-203.43
1126.093,-65.1,-31.01,-212.2
1126.101,-45.25,-27.96,-212.19
1126.109,-17.14,-24.41,-213.23
1126.116,9.31,-23.61,-212.73
1126.124,23.59,-25.63,-206.83
1126.132,27.28,-28.87,-200.79
1126.14,30.97,-28.61,-195.8
1126.147,34.65,-24.65,-184.95
1126.155,38.34,-23.99,-167.92
1126.163,42.03,-26.3,-151.68
1126.17,52.71,-26.49,-140.07
1126.178,77.07,-27.99,-132.26
1126.186,97.28,-32.36,-123.13
1126.193,112.53,-32.64,-109.86
1126.201,120.65,-27.99,-100.42
1126.209,119.92,-24.25,-100.0
1126.216,114.38,-21.99,-100.59
1126.224,107.29,-19.51,-97.11
1126.232,97.59,-17.5,-90.76
1126.24,79.24,-16.34,-78.71
1126.247,44.49,-18.67,-69.67
1126.255,1.21,-26.66,-72.05
1126.263,-30.09,-28.5,-78.38
1126.27,-45.94,-22.39,-70.14
1126.278,-57.15,-19.66,-53.99
1126.286,-64.54,-17.09,-38.69
1126.293,-66.39,-16.13,-29.54
1126.301,-67.84,-2.51,-33.86
1126.309,-68.06,52.41,-40.36
1126.316,-61.89,164.59,-45.95
1126.324,-51.06,424.87,-39.79
1126.332,-40.06,506.59,-34.0
1126.34,-31.48,321.5,-15.23
1126.347,-24.93,-151.1,-6.24
1126.355,-18.16,-199.63,-5.38
1126.363,-16.02,-9.76,-12.48
1126.37,-24.26,-56.08,8.27
1126.378,-32.36,-147.12,112.81
1126.386,-29.08,-79.45,348.76
1126.393,-24.04,-46.8,751.78
1126.401,-27.22,-88.78,1135.49
1126.409,-30.23,-81.42,993.71
1126.416,-25.79,-55.92,188.31
1126.424,-19.55,-61.17,-534.27
1126.432,-16.8,-56.26,-515.58
1126.44,-16.77,-38.03,-144.57
1126.447,-16.91,-32.55,-42.4
1126.455,-14.39,-26.77,-117.25
1126.463,-9.47,-12.6,-88.51
1126.47,-5.91,-6.46,-39.03
1126.478,-4.4,-5.53,-56.78
1126.486,-3.03,9.71,-55.36
1126.493,-2.61,37.16,-24.97
1126.501,-2.46,58.71,-19.1
1126.509,0.43,74.49,-18.55
1126.516,-1.58,98.79,-1.91
1126.524,-20.23,129.2,12.09
1126.532,-38.26,151.21,23.27
1126.54,-17.78,163.02,43.65
1126.547,34.17,172.24,69.46
1126.555,58.13,181.04,99.09
1126.563,35.41,185.18,136.48
1126.57,19.29,179.55,177.76
1126.578,32.05,165.91,219.07
1126.586,27.25,148.49,262.07
1126.593,-8.72,119.29,302.3
1126.601,-35.57,72.17,327.14
1126.609,-44.77,25.06,328.99
1126.616,-49.45,-6.03,310.32
1126.624,-50.4,-34.14,274.14
1126.632,-85.73,-69.93,219.37
1126.64,-187.84,-98.42,147.82
1126.647,-152.05,-110.69,67.41
1126.655,-7.71,-117.33,-11.91
1126.663,281.72,-122.37,-81.11
1126.67,562.17,-121.77,-135.87
1126.678,596.23,-118.28,-176.26
1126.686,240.97,-113.61,-199.75
1126.693,-272.81,-105.16,-206.81
1126.701,-398.49,-96.35,-209.34
1126.709,-177.96,-92.22,-214.17
1126.716,-119.79,-90.76,-212.79
1126.724,-173.73,-86.69,-203.06
1126.732,-89.2,-77.86,-195.51
1126.74,-77.09,-70.16,-191.02
1126.747,-80.09,-72.6,-180.68
1126.755,-43.07,-81.09,-165.28
1126.763,-9.11,-80.68,-152.34
1126.77,-0.09,-69.44,-142.03
1126.778,8.4,-61.71,-130.17
1126.786,25.75,-64.48,-116.9
1126.793,50.6,-68.58,-104.94
1126.801,78.91,-65.62,-100.68
1126.809,100.2,-58.83,-99.71
1126.816,110.81,-57.52,-98.73
1126.824,112.4,-57.17,-97.75
1126.832,106.45,-56.83,-96.77
1126.84,99.96,-56.48,-95.79
1126.847,96.57,-56.13,-94.82
1126.855,88.44,-55.79,-93.84
1126.863,68.97,-55.44,-92.3
1126.87,39.98,-55.09,-89.52
1126.878,8.03,-56.64,-90.98
1126.886,-17.91,-59.86,-91.04
1126.893,-33.08,-61.08,-84.78
1126.901,-40.92,-61.14,-77.05
1126.909,-47.38,-63.58,-76.11
1126.916,-55.19,-62.54,-80.21
1126.924,-59.36,-50.87,-82.18
1126.932,-54.04,-38.55,-82.03
1126.94,-48.65,-38.49,-81.88
1126.947,-54.75,-43.06,-78.29
1126.955,-61.55,-41.67,-71.8
1126.963,-56.33,-41.24,-69.87
1126.97,-47.57,-45.88,-71.56
1126.978,-41.75,-45.83,-67.45
1126.986,-32.05,-42.45,-57.33
1126.993,-19.37,-47.79,-50.33
1127.001,-11.74,-53.54,-51.3
1127.009,-12.2,-41.06,-57.48
1127.016,-21.77,-20.62,-61.46
1127.024,-34.43,-19.11,-58.73
1127.032,-36.31,-33.74,-55.76
1127.04,-26.83,-38.32,-56.21
1127.047,-21.07,-29.18,-45.48
1127.055,-25.61,-25.89,-15.55
1127.063,-32.18,-31.69,9.98
1127.07,-32.19,-31.46,7.31
1127.078,-25.41,-23.62,-12.25
1127.086,-17.29,-19.73,-24.84
1127.093,-11.93,-21.48,-25.41
1127.101,-10.24,-23.35,-21.19
1127.109,-11.82,-24.38,-17.16
1127.116,-12.98,-24.44,-12.27
1127.124,-8.93,-22.62,-7.13
1127.132,-1.43,-20.57,-10.0
1127.14,3.45,-19.38,-4.08
1127.147,3.42,-18.13,68.37
1127.155,-0.33,-16.99,259.81
1127.163,-6.7,-17.6,602.46
1127.17,-15.16,-20.65,1012.47
1127.178,-21.27,-23.45,1091.25
1127.186,-10.81,-21.89,479.77
1127.193,24.68,-17.12,-374.89
1127.201,47.45,-16.25,-607.57
1127.209,60.27,-22.61,-231.79
1127.216,61.5,-27.22,5.58
1127.224,34.62,-16.19,-77.65
1127.232,9.58,8.33,-105.11
1127.24,13.32,24.77,-29.71
1127.247,11.33,20.89,-31.54
1127.255,-26.33,8.96,-56.28
1127.263,-77.04,-1.14,-25.17
1127.27,-111.82,-15.33,-7.14
1127.278,-123.42,-28.08,-16.45
1127.286,-120.8,-22.54,-3.72
1127.293,-136.68,-8.55,17.66
1127.301,-166.38,-8.77,25.82
1127.309,-98.55,-12.0,39.89
1127.316,190.76,6.79,64.72
1127.324,702.49,87.83,87.78
1127.332,1228.15,343.5,113.14
1127.34,1304.19,776.26,150.2
1127.347,632.57,1006.88,197.42
1127.355,-270.36,659.68,245.49
1127.363,-564.81,42.72,283.46
1127.37,-299.96,-212.93,307.18
1127.378,-161.28,-93.72,317.44
1127.386,-261.27,-33.87,309.52
1127.393,-262.38,-104.97,280.44
1127.401,-180.32,-108.26,236.23
1127.409,-183.12,-64.64,176.98
1127.416,-194.32,-72.64,112.23
1127.424,-151.4,-83.32,96.06
1127.432,-129.45,-75.49,79.9
1127.44,-132.56,-73.22,63.74
1127.447,-117.37,-70.94,47.57
1127.455,-106.93,-68.67,31.41
1127.463,-114.29,-66.39,-6.14
1127.47,-106.38,-64.12,-78.24
1127.478,-80.44,-61.84,-127.34
1127.486,-61.1,-59.57,-167.66
1127.493,-47.17,-57.29,-198.69
1127.501,-26.78,-55.02,-207.86
1127.509,-4.79,-52.74,-202.03
1127.516,12.48,-61.59,-200.78
1127.524,28.13,-63.61,-203.92
1127.532,46.73,-48.04,-198.22
1127.54,70.25,-36.84,-185.58
1127.547,95.79,-28.55,-176.79
1127.555,117.88,-14.59,-170.59
1127.563,134.87,-2.85,-160.08
1127.57,145.38,6.87,-147.07
1127.578,146.52,22.62,-136.69
1127.586,140.92,42.43,-127.95
1127.593,131.94,62.32,-118.56
1127.601,116.94,83.7,-110.85
1127.609,94.83,104.85,-106.36
1127.616,68.53,123.68,-101.73
1127.624,39.74,145.97,-95.71
1127.632,11.22,172.14,-92.14
1127.64,-13.71,188.97,-91.97
1127.647,-34.61,193.45,-91.33
1127.655,-49.92,198.8,-89.88
1127.663,-58.04,203.1,-91.33
1127.67,-61.68,189.46,-94.71
1127.678,-62.13,159.28,-94.85
1127.686,-57.63,126.91,-91.41
1127.693,-49.62,92.53,-88.24
1127.701,-40.25,49.87,-85.1
1127.709,-29.38,3.67,-79.12
1127.716,-18.4,-36.07,-73.21
1127.724,-8.92,-65.69,-72.69
1127.732,-0.94,-88.94,-72.67
1127.74,4.53,-107.05,-62.16
1127.747,7.48,-114.39,-43.86
1127.755,8.33,-112.82,-34.12
1127.763,3.35,-113.12,-39.09
1127.77,-5.94,-113.79,-47.13
1127.778,-11.49,-106.44,-48.71
1127.786,-17.03,-98.01,-47.93
1127.793,-24.32,-96.53,-45.68
1127.801,-26.45,-94.53,-28.5
1127.809,-25.82,-88.33,5.16
1127.816,-26.31,-85.37,26.14
1127.824,-26.39,-86.57,13.73
1127.832,-23.65,-84.9,-10.05
1127.84,-28.39,-75.81,-16.24
1127.847,-49.74,-63.14,-9.19
1127.855,-72.55,-59.49,-7.19
1127.863,-78.75,-68.53,-10.85
1127.87,-74.07,-75.17,-8.43
1127.878,-69.23,-72.33,-1.13
1127.886,-63.77,-70.72,0.98
1127.893,-59.94,-70.68,19.63
1127.901,-63.71,-65.28,112.31
1127.909,-72.14,-64.52,339.73
1127.916,-78.02,-72.95,734.6
1127.924,-80.31,-71.86,1132.49
1127.932,-82.29,-58.03,1068.43
1127.94,-85.01,-54.03,330.02
1127.947,-85.17,-62.01,-454.74
1127.955,-81.29,-61.15,-542.81
1127.963,-81.95,-48.03,-165.05
1127.97,-95.36,-45.07,-6.6
1127.978,-109.9,-46.6,-98.27
1127.986,-108.93,-46.23,-75.07
1127.993,-101.32,-41.2,-15.41
1128.001,-98.67,-42.71,-28.38
1128.009,-77.76,-41.78,-20.1
1128.016,-25.74,-39.9,13.25
1128.024,6.94,-43.03,33.53
1128.032,-19.28,-37.05,55.03
1128.04,-54.09,-30.41,80.42
1128.047,-44.37,-34.4,110.56
1128.055,-24.58,-37.09,144.38
1128.063,-34.96,-34.6,184.28
1128.07,-51.85,-26.76,231.98
1128.078,-55.37,-23.17,278.93
1128.086,-54.9,-24.82,315.99
1128.093,-49.84,-22.47,338.39
1128.101,-58.28,-17.5,338.56
1128.109,-96.36,-14.9,313.87
1128.116,-77.7,-12.41,272.12
1128.124,128.78,-14.92,217.2
1128.132,573.2,-25.05,145.51
1128.14,1166.11,-25.57,60.05
1128.147,1498.42,-10.42,-25.88
1128.155,1040.19,-3.78,-96.94
1128.163,40.11,-15.47,-145.47
1128.17,-503.16,-24.67,-176.9
1128.178,-308.94,-22.78,-199.04
1128.186,-102.39,-19.16,-210.42
1128.193,-202.57,-11.51,-210.93
1128.201,-240.41,3.46,-207.96
1128.209,-141.18,13.01,-202.15
1128.216,-127.16,9.98,-189.3
1128.224,-157.66,2.98,-174.92
1128.232,-126.18,-4.89,-164.64
1128.24,-100.42,-18.18,-153.5
1128.247,-104.8,-28.99,-139.44
1128.255,-85.37,-24.09,-129.14
1128.263,-58.44,-12.49,-124.53
1128.27,-57.47,-12.15,-119.54
1128.278,-58.46,-14.0,-111.08
1128.286,-45.77,8.96,-103.79
1128.293,-34.48,117.39,-102.89
1128.301,-14.71,430.51,-106.18
1128.309,30.45,886.64,-107.09
1128.316,88.32,1022.68,-105.08
1128.324,101.62,527.33,-105.21
1128.332,121.85,-108.78,-106.75
1128.34,132.73,-245.21,-104.43
1128.347,184.85,-56.46,-100.47
1128.355,194.26,-32.41,-100.23
1128.363,186.4,-124.81,-100.46
1128.37,168.38,-107.67,-96.91
1128.378,126.91,-66.71,-93.37
1128.386,74.49,-89.9,-92.59
1128.393,42.75,-93.86,-91.12
1128.401,24.62,-65.23,-87.58
1128.409,-1.46,-58.84,-83.85
1128.416,-26.73,-59.58,-79.64
1128.424,-47.47,-43.47,-74.04
1128.432,-80.45,-28.13,-69.11
1128.44,-115.88,-20.53,-68.39
1128.447,-125.24,-11.14,-73.28
1128.455,-112.07,1.28,-80.68
1128.463,-99.0,13.93,-85.52
1128.47,-92.09,27.7,-86.0
1128.478,-90.58,44.19,-80.44
1128.486,-93.73,61.76,-62.08
1128.493,-90.31,81.8,-32.01
1128.501,-75.38,111.65,-11.83
1128.509,-63.45,148.85,-19.03
1128.516,-62.03,180.17,-40.36
1128.524,-60.91,191.86,-52.73
1128.532,-57.42,199.57,-51.54
1128.54,-59.17,208.82,-52.89
1128.547,-65.78,217.15,-44.92
1128.555,-75.15,218.62,-45.85
1128.563,-90.25,215.73,-25.84
1128.57,-103.46,210.29,84.58
1128.578,-101.93,199.11,353.63
1128.586,-91.14,174.8,829.54
1128.593,-85.12,134.22,1286.43
1128.601,-84.04,86.21,1105.98
1128.609,-83.27,41.46,134.76
1128.616,-84.04,0.7,-678.78
1128.624,-83.78,-37.2,-557.89
1128.632,-77.38,-68.58,-86.17
1128.64,-68.13,-91.9,-34.49
1128.647,-62.66,-108.83,-170.3
1128.655,-61.62,-119.94,-113.53
1128.663,-60.99,-125.04,-43.73
1128.67,-57.22,-124.69,-84.14
1128.678,-50.56,-121.01,-85.98
1128.686,-43.12,-115.76,-43.19
1128.693,-36.46,-108.62,-38.44
1128.701,-34.19,-101.58,-32.43
1128.709,-37.18,-96.82,1.55
1128.716,-39.29,-89.98,20.86
1128.724,-39.04,-79.66,26.87
1128.732,-40.29,-73.55,47.26
1128.74,-39.58,-72.52,74.49
1128.747,-35.02,-70.68,99.01
1128.755,-33.81,-71.68,130.0
1128.763,-35.04,-77.33,171.3
1128.77,-30.72,-77.12,217.42
1128.778,-24.16,-70.87,261.0
1128.786,-21.06,-71.04,292.76
1128.793,-11.41,-74.43,307.14
1128.801,18.82,-68.49,305.49
1128.809,57.31,-60.32,289.39
1128.816,68.03,-63.4,258.54
1128.824,46.64,-70.7,212.04
1128.832,35.27,-70.93,146.3
1128.84,46.79,-69.77,62.76
1128.847,43.28,-71.88,-21.71
1128.855,16.97,-67.85,-88.67
1128.863,0.63,-55.21,-137.04
1128.87,-1.98,-47.12,-172.98
1128.878,-1.6,-51.11,-196.15
1128.886,-1.23,-59.85,-207.96
1128.893,-0.85,-64.02,-214.2
1128.901,-0.47,-60.47,-215.09
1128.909,-0.1,-51.92,-208.98
1128.916,0.28,-46.28,-199.05
1128.924,0.66,-49.61,-185.23
1128.932,1.03,-56.79,-165.23
1128.94,1.41,-56.51,-147.03
1128.947,1.78,-48.1,-137.52
1128.955,2.16,-43.43,-126.6
1128.963,2.54,-47.08,-108.84
1128.97,3.37,-49.26,-98.11
1128.978,10.47,-44.5,-97.66
1128.986,6.96,-40.17,-93.8
1128.993,-45.31,-41.03,-88.81
1129.001,-91.56,-41.36,-92.99
1129.009,49.85,-38.61,-96.34
1129.016,484.02,-39.99,-91.64
1129.024,1110.06,-44.76,-92.02
1129.032,1552.97,-39.55,-98.67
1129.04,1248.72,-26.78,-97.45
1129.047,207.48,-25.88,-90.7
1129.055,-588.14,-34.07,-88.68
1129.063,-494.11,-31.61,-85.81
1129.07,-155.94,-23.79,-76.15
1129.078,-209.17,-27.07,-68.3
1129.086,-329.29,-33.33,-69.54
1129.093,-235.11,-31.06,-70.79
1129.101,-173.52,-26.88,-72.03
1129.109,-209.76,-24.2,-73.27
1129.116,-183.91,-26.68,-73.09
1129.124,-135.32,-31.13,-68.56
1129.132,-139.52,-28.56,-61.74
1129.14,-136.79,-21.76,-57.17
1129.147,-109.28,-18.73,-52.0
1129.155,-94.12,-20.39,-44.05
1129.163,-81.34,-22.76,-40.46
1129.17,-60.52,-23.48,-45.88
1129.178,-46.55,-19.24,-52.16
1129.186,-34.58,-8.14,-52.26
1129.193,-14.13,3.08,-49.97
1129.201,8.41,7.58,-46.0
1129.209,29.72,8.25,-31.23
1129.216,52.48,7.37,-2.7
1129.224,74.87,0.21,25.21
1129.232,97.32,-13.02,33.09
1129.24,122.34,-22.79,18.53
1129.247,144.31,-22.55,0.19
1129.255,156.15,-18.16,-5.46
1129.263,160.62,-18.1,-3.35
1129.27,162.56,-15.52,-4.55
1129.278,159.62,6.44,-4.41
1129.286,149.17,92.12,2.05
1129.293,132.63,358.84,2.09
1129.301,107.99,819.04,3.28
1129.309,69.01,1084.95,65.13
1129.316,15.25,726.49,267.71
1129.324,-41.24,42.17,675.26
1129.332,-83.24,-250.4,1190.06
1129.34,-106.09,-102.99,1345.12
1129.347,-121.88,-24.12,706.17
1129.355,-138.59,-114.08,-286.58
1129.363,-148.91,-126.94,-662.54
1129.37,-148.77,-74.76,-318.51
1129.378,-145.46,-79.56,-29.08
1129.386,-141.02,-91.48,-87.51
1129.393,-131.1,-72.05,-131.36
1129.401,-117.31,-63.33,-57.12
1129.409,-102.83,-60.01,-46.99
1129.416,-88.55,-45.88,-75.78
1129.424,-77.61,-39.21,-50.22
1129.432,-68.83,-37.5,-23.09
1129.44,-57.7,-29.7,-24.87
1129.447,-48.59,-22.11,-15.78
1129.455,-45.71,-8.14,3.29
1129.463,-43.57,18.43,17.0
1129.47,-40.66,40.05,36.3
1129.478,-41.25,51.72,61.41
1129.486,-43.48,69.14,84.89
1129.493,-43.46,92.95,112.4
1129.501,-41.2,116.04,147.44
1129.509,-38.42,142.64,188.23
1129.516,-38.22,169.9,233.6
1129.524,-39.24,186.81,273.08
1129.532,-38.49,194.77,292.92
1129.54,-37.73,198.32,291.22
1129.547,-38.67,193.24,272.02
1129.555,-47.48,179.08,241.0
1129.563,-63.54,160.61,207.29
1129.57,-75.07,136.66,166.42
1129.578,-79.45,102.5,99.27
1129.586,-80.32,58.47,10.54
1129.593,-75.89,13.0,-66.35
1129.601,-68.1,-25.07,-117.15
1129.609,-62.21,-57.22,-153.51
1129.616,-58.38,-86.19,-175.57
1129.624,-60.45,-105.76,-177.32
1129.632,-71.14,-113.15,-179.39
1129.64,-77.16,-116.65,-179.3
1129.647,-68.61,-111.72,-169.13
1129.655,-55.61,-99.79,-163.12
1129.663,-46.63,-88.83,-149.79
1129.67,-39.41,-79.42,-114.42
1129.678,-34.54,-74.95,-88.4
1129.686,-32.12,-69.92,-86.32
1129.693,-26.95,-66.56,-88.99
1129.701,-19.13,-67.63,-84.89
1129.709,-13.95,-65.75,-76.52
1129.716,-12.86,-57.74,-66.7
1129.724,-11.11,-55.02,-69.83
1129.732,4.93,-62.15,-89.81
1129.74,44.08,-65.85,-99.99
1129.747,81.05,-59.34,-87.99
1129.755,79.4,-53.71,-70.21
1129.763,53.53,-55.38,-55.38
1129.77,47.9,-56.45,-49.26
1129.778,58.27,-52.8,-61.98
1129.786,48.22,-50.4,-76.78
1129.793,22.07,-51.56,-65.26
1129.801,8.49,-51.22,-38.97
1129.809,10.0,-48.18,-32.01
1129.816,11.98,-46.97,-43.23
1129.824,-5.94,-46.83,-44.31
1129.832,-49.06,-42.4,-32.55
1129.84,-46.41,-36.76,-29.1
1129.847,122.21,-37.97,-35.26
1129.855,519.74,-44.36,-36.2
1129.863,1079.44,-47.53,-34.55
1129.87,1471.71,-45.63,-39.24
1129.878,1199.33,-43.8,-39.84
1129.886,303.36,-43.93,-21.86
1129.893,-387.28,-41.7,8.39
1129.901,-363.84,-36.16,28.84
1129.909,-122.59,-32.99,24.61
1129.916,-151.54,-34.82,3.84
1129.924,-234.78,-38.43,-11.13
1129.932,-169.12,-39.65,-10.59
1129.94,-121.61,-34.6,-7.05
1129.947,-147.64,-25.63,-11.46
1129.955,-141.23,-23.22,-14.1
1129.963,-119.14,-29.67,-8.73
1129.97,-126.7,-33.72,-8.0
1129.978,-123.26,-29.72,3.38
1129.986,-97.96,-24.8,88.49
1129.993,-83.4,-24.44,316.39
1130.001,-80.89,-27.25,718.35
1130.009,-80.19,-30.21,1112.7
1130.016,-80.21,-29.49,998.57
1130.024,-73.89,-24.62,161.44
1130.032,-61.82,-22.24,-686.88
1130.04,-46.15,-25.03,-731.5
1130.047,-12.7,-27.35,-256.74
1130.055,33.31,-28.01,-30.47
1130.063,46.98,-28.47,-84.08
1130.07,46.12,-23.53,-63.89
1130.078,50.35,-14.16,0.62
1130.086,68.46,-12.38,-18.99
1130.093,72.34,-19.9,-34.12
1130.101,57.05,-25.1,-4.36
1130.109,11.38,-24.4,4.07
1130.116,-29.28,-24.51,0.05
1130.124,-51.34,-26.48,19.46
1130.132,-66.09,-25.45,40.6
1130.14,-84.46,-23.12,48.55
1130.147,-110.98,-24.47,58.48
1130.155,-140.53,-22.4,77.47
1130.163,-154.02,-5.82,103.84
1130.17,-144.74,14.71,134.91
1130.178,-129.29,16.44,168.32
1130.186,-118.26,11.86,182.63
1130.193,-108.14,9.49,190.79
1130.201,-97.82,7.12,198.94
1130.209,-86.28,4.75,207.09
1130.216,-69.64,2.39,215.24
1130.224,-50.71,0.02,240.14
1130.232,-37.19,-2.35,283.41
1130.24,-32.19,-4.72,305.36
1130.247,-32.05,-7.09,304.59
1130.255,-31.19,-16.0,287.69
1130.263,-30.89,-23.97,253.91
1130.27,-35.8,-30.1,205.32
1130.278,-41.68,-27.7,148.19
1130.286,-43.42,-19.22,80.93
1130.293,-45.28,-16.65,4.28
1130.301,-47.21,-13.27,-65.66
1130.309,-42.15,12.46,-115.89
1130.316,-32.8,126.81,-152.01
1130.324,-27.65,454.6,-180.72
1130.332,-27.42,910.12,-198.45
1130.34,-29.27,1016.93,-206.1
1130.347,-29.91,510.47,-210.7
1130.355,-24.55,-95.44,-209.84
1130.363,-14.68,-219.51,-197.51
1130.37,-7.77,-60.63,-179.62
1130.378,-6.67,-52.93,-165.04
1130.386,-8.62,-132.27,-152.81
1130.393,-9.48,-109.33,-140.04
1130.401,-5.65,-70.44,-129.61
1130.409,1.76,-89.35,-122.72
1130.416,7.38,-94.89,-113.99
1130.424,8.64,-72.66,-101.1
1130.432,7.07,-62.11,-91.94
1130.44,5.1,-56.85,-92.3
1130.447,5.95,-46.29,-94.25
1130.455,11.98,-38.9,-89.9
1130.463,20.46,-31.11,-86.61
1130.47,24.47,-18.18,-93.37
1130.478,20.56,-6.16,-102.83
1130.486,14.29,1.06,-103.03
1130.493,13.85,8.18,-97.82
1130.501,18.07,27.39,-99.21
1130.509,19.65,62.39,-106.78
1130.516,21.37,94.32,-109.94
1130.524,30.62,109.32,-105.16
1130.532,35.9,124.21,-96.98
1130.54,21.39,155.57,-87.96
1130.547,4.91,187.8,-80.22
1130.555,12.24,199.67,-79.34
1130.563,24.22,199.72,-85.56
1130.57,10.01,206.3,-90.11
1130.578,-16.5,211.55,-88.3
1130.586,-27.86,198.39,-86.42
1130.593,-22.23,173.72,-86.98
1130.601,-13.2,149.19,-75.97
1130.609,-29.13,115.66,-43.92
1130.616,-69.94,67.71,-13.52
1130.624,-69.26,18.95,-15.02
1130.632,102.37,-22.98,-41.38
1130.64,513.13,-59.79,-61.42
1130.647,1075.89,-85.31,-62.54
1130.655,1440.57,-96.76,-55.24
1130.663,1106.79,-104.16,-52.91
1130.67,156.22,-112.01,-56.0
1130.678,-528.88,-115.87,-54.92
1130.686,-464.08,-116.33,-49.87
1130.693,-214.37,-115.59,-34.77
1130.701,-259.99,-111.8,34.88
1130.709,-338.6,-104.93,214.52
1130.716,-262.89,-95.72,531.5
1130.724,-225.11,-84.3,897.74
1130.732,-254.53,-75.22,967.34
1130.74,-228.26,-71.34,426.44
1130.747,-186.16,-68.39,-360.46
1130.755,-191.58,-65.95,-620.97
1130.763,-199.75,-68.91,-295.54
1130.77,-187.25,-73.27,-36.01
1130.778,-173.0,-69.63,-43.69
1130.786,-153.63,-61.26,-65.77
1130.793,-128.95,-59.71,-87.84
1130.801,-111.79,-63.58,-109.92
1130.809,-97.58,-63.86,-132.0
1130.816,-77.17,-61.69,-123.62
1130.824,-53.69,-58.69,-53.48
1130.832,-28.75,-57.7,-33.71
1130.84,-0.39,-61.96,-67.54
1130.847,28.99,-61.55,-43.68
1130.855,57.48,-57.56,-4.44
1130.863,86.77,-57.49,-7.89
1130.87,116.96,-57.1,-9.19
1130.878,143.79,-53.82,15.15
1130.886,161.08,-54.66,32.18
1130.893,167.94,-56.17,37.64
1130.901,168.75,-50.78,58.69
1130.909,163.17,-47.91,97.66
1130.916,148.66,-52.7,131.94
1130.924,129.43,-51.08,155.04
1130.932,106.08,-41.99,184.92
1130.94,71.53,-40.58,232.35
1130.947,29.71,-44.89,282.22
1130.955,-5.04,-45.58,312.26
1130.963,-28.86,-47.15,316.52
1130.97,-47.18,-47.89,304.24
1130.978,-61.82,-40.16,281.22
1130.986,-71.61,-35.18,238.42
1130.993,-75.92,-42.35,166.84
1131.001,-76.3,-47.61,81.7
1131.009,-77.04,-42.79,9.92
1131.016,-81.58,-38.16,-46.81
1131.024,-90.02,-37.73,-104.88
1131.032,-96.33,-37.03,-158.7
1131.04,-89.96,-35.59,-187.62
1131.047,-72.28,-33.65,-194.21
1131.055,-58.03,-31.23,-196.61
1131.063,-51.57,-30.38,-197.28
1131.07,-45.23,-31.14,-189.7
1131.078,-37.26,-32.79,-177.5
1131.086,-29.54,-33.83,-166.85
1131.093,-22.96,-29.41,-154.93
1131.101,-20.87,-21.91,-137.66
1131.109,-21.36,-22.1,-120.55
1131.116,-18.38,-29.91,-111.34
1131.124,-15.46,-35.01,-106.1
1131.132,-17.62,-35.15,-98.73
1131.14,-19.42,-33.44,-94.97
1131.147,-17.04,-28.84,-96.61
1131.155,-14.8,-20.87,-92.85
1131.163,-12.17,-10.66,-84.85
1131.17,-6.81,1.17,-85.77
1131.178,-8.01,8.37,-92.01
1131.186,-7.52,2.43,-91.31
1131.193,-5.03,-12.72,-87.7
1131.201,0.19,-24.49,-88.11
1131.209,4.73,-27.96,-87.29
1131.216,-2.6,-24.87,-83.02
1131.224,-25.4,-20.12,-82.24
1131.232,-47.31,-22.51,-86.78
1131.24,-51.7,-27.38,-88.4
1131.247,-42.19,-15.32,-80.47
1131.255,-31.68,45.55,-70.18
1131.263,-27.18,255.98,-68.4
1131.27,-29.27,686.74,-69.72
1131.278,-32.95,1048.58,-64.17
1131.286,-30.8,846.73,-57.4
1131.293,-15.79,177.51,-52.48
1131.301,18.81,-243.27,-37.35
1131.309,61.43,-153.73,-8.54
1131.316,74.11,-18.93,8.74
1131.324,44.43,-90.62,16.83
1131.332,16.96,-141.42,21.6
1131.34,21.97,-90.9,39.34
1131.347,27.18,-75.64,124.94
1131.355,6.69,-92.4,275.1
1131.363,-17.5,-76.84,442.11
1131.37,-28.64,-62.84,519.73
1131.378,-33.07,-68.14,226.83
1131.386,-38.66,-66.53,-445.77
1131.393,-65.15,-64.91,-703.96
1131.401,-101.77,-48.82,-328.99
1131.409,-38.82,-42.29,-6.53
1131.416,255.7,-35.88,-20.46
1131.424,786.7,-17.79,-40.37
1131.432,1316.85,-6.08,23.86
1131.44,1358.51,-4.24,32.87
1131.447,646.95,10.33,20.36
1131.455,-264.28,37.58,44.7
1131.463,-560.03,54.15,59.42
1131.47,-315.99,65.23,55.17
1131.478,-192.18,96.31,61.23
1131.486,-286.95,140.25,72.57
1131.493,-290.28,169.63,85.93
1131.501,-228.63,182.6,110.01
1131.509,-249.27,192.5,135.24
1131.516,-264.75,201.02,155.43
1131.524,-219.06,205.88,181.78
1131.532,-192.16,205.43,217.61
1131.54,-189.2,193.38,257.62
1131.547,-167.37,167.68,300.83
1131.555,-146.04,131.0,338.33
1131.563,-137.94,83.95,352.23
1131.57,-120.65,34.98,339.67
1131.578,-95.09,-5.19,314.63
1131.586,-73.84,-42.02,284.44
1131.593,-52.89,-78.12,241.27
1131.601,-32.42,-99.2,175.03
1131.609,-16.3,-105.87,89.52
1131.616,4.28,-115.03,5.5
1131.624,34.19,-125.46,-59.76
1131.632,66.33,-127.88,-110.32
1131.64,96.55,-127.31,-154.33
1131.647,121.12,-125.36,-184.65
1131.655,138.76,-116.23,-195.71
1131.663,161.45,-104.53,-198.99
1131.67,184.53,-96.02,-205.37
1131.678,176.51,-86.81,-209.52
1131.686,109.08,-77.84,-200.99
1131.693,84.17,-76.09,-182.05
1131.701,44.54,-79.37,-165.94
1131.709,28.25,-79.07,-155.05
1131.716,-66.43,-72.17,-139.98
1131.724,-104.46,-63.65,-124.39
1131.732,-96.79,-63.05,-116.87
1131.74,-87.01,-71.69,-105.33
1131.747,-99.08,-74.43,-82.13
1131.755,-115.74,-63.11,-68.15
1131.763,-117.43,-54.06,-73.75
1131.77,-100.18,-57.89,-78.95
1131.778,-77.26,-60.53,-76.15
1131.786,-62.48,-55.52,-80.06
1131.793,-54.63,-55.62,-85.8
1131.801,-48.97,-60.99,-74.43
1131.809,-43.44,-59.27,-59.47
1131.816,-34.2,-55.16,-71.32
1131.824,-22.05,-58.45,-102.41
1131.832,-13.59,-58.93,-118.13
1131.84,-13.12,-47.87,-110.44
1131.847,-19.37,-37.6,-101.04
1131.855,-25.44,-37.24,-102.94
1131.863,-24.86,-40.52,-108.16
1131.87,-18.86,-42.49,-109.57
1131.878,-12.97,-42.29,-109.51
1131.886,-12.56,-39.6,-109.45
1131.893,-19.28,-38.5,-109.39
1131.901,-24.78,-40.13,-109.33
1131.909,-20.32,-39.14,-109.27
1131.916,-12.15,-33.32,-109.21
1131.924,-12.1,-26.06,-109.15
1131.932,-21.89,-25.53,-109.02
1131.94,-33.87,-30.46,-107.32
1131.947,-37.22,-33.46,-95.6
1131.955,-28.92,-26.72,-66.47
1131.963,-22.87,-25.81,-41.08
1131.97,-32.76,-24.33,-40.27
1131.978,-50.02,-16.04,-49.13
1131.986,-57.27,-9.36,-47.81
1131.993,-52.71,-12.19,-39.66
1132.001,-44.45,-15.11,-33.01
1132.009,-34.97,-11.95,-35.7
1132.016,-25.12,-11.27,-49.65
1132.024,-20.26,-15.55,-52.29
1132.032,-22.39,-16.92,-32.39
1132.04,-26.1,-14.0,-12.53
1132.047,-24.29,-11.2,22.88
1132.055,-7.16,-9.39,145.35
1132.063,32.73,-9.16,409.35
1132.07,73.6,-12.15,794.27
1132.078,73.31,-15.87,1051.32
1132.086,35.73,-16.79,720.88
1132.093,15.04,-15.48,-184.53
1132.101,25.89,-13.19,-819.1
1132.109,26.59,-11.29,-607.64
1132.116,2.74,-13.34,-116.73
1132.124,-20.51,-18.06,-13.46
1132.132,-33.07,-17.61,-103.79
1132.14,-38.45,-9.05,-58.71
1132.147,-47.82,2.77,-4.56
1132.155,-84.44,12.72,-33.52
1132.163,-110.05,16.65,-28.41
1132.17,-1.64,12.38,10.31
1132.178,332.99,2.48,13.43
1132.186,867.5,-10.27,15.43
1132.193,1344.8,-22.24,41.12
1132.201,1253.52,-23.82,52.52
1132.209,431.79,-13.56,50.82
1132.216,-398.78,-6.76,68.16
1132.224,-514.55,-8.39,96.1
1132.232,-238.0,-3.3,114.47
1132.24,-147.51,37.01,139.57
1132.247,-165.3,205.53,189.46
1132.255,-183.08,593.3,246.08
1132.263,-200.87,981.84,285.07
1132.27,-218.66,893.69,306.37
1132.278,-236.45,301.13,320.78
1132.286,-254.23,-174.53,329.62
1132.293,-272.02,-169.19,315.62
1132.301,-289.81,-33.09,255.57
1132.309,-296.51,-73.29,160.24
1132.316,-245.61,-131.71,75.74
1132.324,-185.03,-92.73,19.59
1132.332,-219.77,-73.14,-40.07
1132.34,-230.93,-95.25,-116.12
1132.347,-195.66,-84.03,-174.28
1132.355,-180.3,-57.2,-197.75
1132.363,-171.59,-53.62,-211.42
1132.37,-149.26,-51.94,-227.56
1132.378,-134.8,-41.6,-231.88
1132.386,-125.64,-36.49,-219.91
1132.393,-105.67,-33.7,-201.9
1132.401,-82.33,-26.84,-187.27
1132.409,-63.95,-17.54,-179.56
1132.416,-45.6,-2.1,-174.49
1132.424,-25.16,19.64,-164.51
1132.432,-5.1,37.78,-144.98
1132.44,17.17,51.5,-117.34
1132.447,45.22,72.78,-99.74
1132.455,75.43,104.76,-105.88
1132.463,103.94,135.12,-102.1
1132.47,132.57,152.43,-87.94
1132.478,157.55,160.94,-81.75
1132.486,169.79,174.16,-82.97
1132.493,171.98,187.64,-82.25
1132.501,172.58,191.39,-78.64
1132.509,169.2,188.94,-78.06
1132.516,157.87,186.96,-83.77
1132.524,137.87,179.28,-88.11
1132.532,101.48,158.27,-85.99
1132.54,49.39,125.67,-85.11
1132.547,2.47,83.47,-86.07
1132.555,-28.12,35.69,-73.53
1132.563,-53.27,-6.3,-45.7
1132.57,-77.28,-38.25,-26.22
1132.578,-92.0,-67.02,-31.16
1132.586,-97.79,-92.93,-49.76
1132.593,-102.17,-110.45,-64.32
1132.601,-104.9,-122.34,-68.51
1132.609,-101.11,-130.56,-65.59
1132.616,-91.76,-128.36,-59.37
1132.624,-81.27,-118.4,-49.47
1132.632,-70.15,-114.08,-40.74
1132.64,-57.18,-113.87,-39.8
1132.647,-43.39,-105.53,-21.47
1132.655,-30.28,-94.48,72.77
1132.663,-20.37,-94.26,299.92
1132.67,-15.79,-97.71,676.13
1132.678,-12.41,-89.74,1023.2
1132.686,-6.26,-75.96,903.67
1132.693,-2.57,-72.45,151.57
1132.701,-4.87,-79.4,-610.15
1132.709,-7.24,-83.68,-675.3
1132.716,-7.74,-79.02,-266.72
1132.724,-13.45,-72.29,-44.24
1132.732,-26.43,-71.0,-69.23
1132.74,-37.66,-71.72,-48.77
1132.747,-39.88,-68.27,10.79
1132.755,-37.77,-63.77,1.36
1132.763,-37.85,-63.39,-9.28
1132.77,-37.6,-65.86,19.02
1132.778,-34.57,-69.09,32.38
1132.786,-32.21,-70.17,29.82
1132.793,-29.97,-65.53,39.37
1132.801,-24.45,-61.42,52.56
1132.809,-19.68,-65.01,66.26
1132.816,-19.87,-66.93,88.78
1132.824,-20.52,-58.87,114.02
1132.832,-17.61,-51.62,139.74
1132.84,-13.77,-52.62,172.05
1132.847,-11.07,-53.59,209.55
1132.855,-8.71,-50.86,251.98
1132.863,-7.09,-48.94,298.72
1132.87,-6.86,-47.91,333.64
1132.878,-6.63,-46.93,343.79
1132.886,-6.4,-47.54,337.34
1132.893,-6.17,-47.13,319.81
1132.901,-5.94,-42.3,280.75
1132.909,-5.71,-36.49,215.57
1132.916,-5.48,-35.91,134.2
1132.924,-5.03,-39.38,48.4
1132.932,-4.59,-38.68,-33.24
1132.94,-3.01,-33.14,-103.04
1132.947,0.32,-31.55,-154.35
1132.955,3.37,-33.65,-185.29
1132.963,4.82,-31.49,-202.36
1132.97,3.97,-28.87,-212.04
1132.978,1.1,-31.94,-212.16
1132.986,0.74,-33.09,-203.05
1132.993,4.05,-26.9,-194.46
1133.001,8.97,-20.79,-191.86
1133.009,24.13,-20.46,-191.8
1133.016,46.46,-22.14,-191.74
1133.024,40.53,-23.04,-191.68
1133.032,-0.07,-19.22,-191.62
1133.04,-23.06,-20.57,-191.56
1133.047,-10.63,-15.19,-189.5
1133.055,-10.77,-7.17,-183.32
1133.063,-39.53,-4.47,-170.92
1133.07,-61.97,-0.63,-150.69
1133.078,-66.8,9.78,-126.0
1133.086,-73.32,11.15,-105.92
1133.093,-103.35,-5.77,-96.86
1133.101,-162.85,-21.02,-91.32
1133.109,-188.75,-17.77,-81.05
1133.116,-65.1,-8.52,-75.03
1133.124,280.37,-9.43,-78.02
1133.132,823.23,-14.25,-75.13
1133.14,1301.56,-7.4,-65.03
1133.147,1194.15,40.23,-67.28
1133.155,373.19,224.89,-80.27
1133.163,-418.83,625.05,-83.4
1133.17,-512.44,1010.47,-78.55
1133.178,-255.59,911.48,-79.94
1133.186,-225.09,304.26,-83.76
1133.193,-314.57,-191.24,-84.44
1133.201,-271.83,-193.36,-88.85
1133.209,-213.62,-41.83,-96.39
1133.216,-226.86,-66.88,-97.49
1133.224,-213.44,-125.9,-90.46
1133.232,-171.86,-89.37,-74.61
1133.24,-164.61,-68.69,-46.23
1133.247,-165.59,-93.74,-18.82
1133.255,-145.36,-83.74,-15.29
1133.263,-125.61,-52.95,-30.7
1133.27,-115.64,-51.45,-37.85
1133.278,-107.1,-55.53,-29.21
1133.286,-97.84,-40.88,-22.65
1133.293,-85.04,-27.52,-28.22
1133.301,-67.29,-24.18,-32.0
1133.309,-46.63,-15.95,-23.86
1133.316,-21.01,0.7,-19.08
1133.324,8.79,16.82,-15.67
1133.332,35.59,32.04,34.09
1133.34,58.37,51.96,188.97
1133.347,83.55,74.05,519.08
1133.355,113.65,94.19,976.81
1133.363,144.49,118.15,1120.05
1133.37,169.79,149.74,499.71
1133.378,183.28,178.78,-426.63
1133.386,182.78,195.65,-693.48
1133.393,175.37,204.5,-291.43
1133.401,169.74,211.55,-26.65
1133.409,162.67,214.17,-99.68
1133.416,144.38,207.9,-115.89
1133.424,113.19,191.8,-28.98
1133.432,74.71,165.0,-22.39
1133.44,36.08,127.83,-41.39
1133.447,5.94,84.27,-11.49
1133.455,-11.67,38.0,3.0
1133.463,-21.6,-8.64,-7.14
1133.47,-30.08,-51.47,3.25
1133.478,-38.56,-85.95,23.42
1133.486,-46.48,-109.8,35.51
1133.493,-50.22,-123.21,51.68
1133.501,-43.96,-129.9,75.73
1133.509,-31.43,-134.32,103.82
1133.516,-24.74,-135.92,136.58
1133.524,-30.43,-132.53,171.75
1133.532,-38.13,-126.75,213.25
1133.54,-32.89,-121.35,262.38
1133.547,-17.23,-115.07,299.85
1133.555,-2.63,-108.6,322.13
1133.563,7.69,-105.64,340.38
1133.57,6.97,-105.35,319.69
1133.578,-11.14,-105.07,232.65
1133.586,-29.08,-104.78,90.41
1133.593,-32.19,-104.5,43.37
1133.601,-37.8,-104.21,-119.94
1133.609,-53.96,-103.93,-179.54
1133.616,-61.02,-103.64,-192.57
1133.624,-56.56,-97.65,-198.72
1133.632,-55.61,-84.61,-204.11
1133.64,-54.16,-74.77,-200.28
1133.647,-44.03,-77.25,-196.23
1133.655,-34.36,-83.9,-194.53
1133.663,-32.33,-81.17,-190.15
1133.67,-33.3,-74.17,-185.15
1133.678,-31.92,-76.95,-179.25
1133.686,-25.54,-84.43,-169.48
1133.693,-15.12,-82.86,-159.85
1133.701,-6.26,-75.85,-152.59
1133.709,-3.64,-72.49,-143.42
1133.716,-6.03,-69.97,-132.4
1133.724,-7.11,-66.77,-122.6
1133.732,-2.17,-68.29,-112.66
1133.74,6.01,-71.24,-101.83
1133.747,12.38,-66.43,-92.67
1133.755,15.16,-56.92,-85.42
1133.763,12.2,-53.87,-78.23
1133.77,3.78,-58.1,-72.48
1133.778,-1.34,-60.13,-73.34
1133.786,3.56,-55.65,-81.87
1133.793,11.69,-51.8,-89.22
1133.801,13.38,-54.55,-88.31
1133.809,9.84,-57.02,-85.84
1133.816,8.29,-52.17,-90.52
1133.824,10.96,-46.75,-98.51
1133.832,14.7,-47.18,-101.5
1133.84,17.33,-48.59,-100.15
1133.847,22.72,-47.95,-98.06
1133.855,39.91,-47.45,-87.18
1133.863,66.61,-45.35,-58.94
1133.87,77.15,-40.55,-29.94
1133.878,58.11,-37.55,-25.76
1133.886,40.88,-37.59,-41.47
1133.893,47.55,-37.21,-53.39
1133.901,47.49,-37.27,-57.31
1133.909,20.52,-39.35,-63.51
1133.916,-12.91,-37.37,-70.48
1133.924,-37.09,-28.29,-66.02
1133.932,-39.61,-22.34,-52.83
1133.94,-35.42,-25.57,-50.73
1133.947,-79.03,-28.17,-46.39
1133.955,-113.44,-23.99,19.45
1133.963,-16.43,-20.29,199.06
1133.97,120.42,-21.27,533.02
1133.978,166.01,-24.39,950.88
1133.986,462.81,-28.86,1061.79
1133.993,617.9,-30.91,504.14
1134.001,392.51,-25.79,-314.27
1134.009,-138.7,-21.22,-578.42
1134.016,-422.16,-25.68,-264.93
1134.024,-264.06,-27.88,-37.31
1134.032,-164.35,-14.89,-91.16
1134.04,-260.22,3.49,-110.33
1134.047,-228.44,13.7,-35.03
1134.055,-209.7,17.79,-21.93
1134.063,-195.59,15.28,-35.87
1134.07,-167.19,-1.58,0.96
1134.078,-150.94,-23.17,28.25
1134.086,-149.15,-28.44,17.6
1134.093,-134.0,-18.71,24.16
1134.101,-101.1,-14.3,56.15
1134.109,-67.65,-19.4,81.72
1134.116,-40.28,-18.45,100.6
1134.124,-11.61,-4.33,120.75
1134.132,22.97,67.21,142.18
1134.14,60.12,344.99,153.63
1134.147,94.95,842.13,158.43
1134.155,122.86,1109.64,163.24
1134.163,139.63,705.0,168.04
1134.17,144.91,6.2,172.84
1134.178,143.6,-201.94,177.65
1134.186,139.14,-266.4,182.45
1134.193,124.04,-40.07,187.25
1134.201,89.29,-36.65,192.05
1134.209,45.01,-146.5,201.53
1134.216,9.44,-104.4,261.01
1134.224,-17.05,-56.14,305.26
1134.232,-41.67,-98.33,344.09
1134.24,-61.58,-100.74,391.0
1134.247,-75.4,-60.91,420.62
1134.255,-86.69,-62.09,413.5
1134.263,-92.83,-70.45,386.1
1134.27,-91.79,-49.14,347.34
1134.278,-87.99,-32.79,281.16
1134.286,-82.96,-31.04,186.19
1134.293,-74.74,-23.45,88.89
1134.301,-63.09,-9.18,9.4
1134.309,-48.98,6.59,-54.6
1134.316,-36.36,23.78,-105.76
1134.324,-28.72,40.33,-137.69
1134.332,-21.92,58.31,-153.37
1134.34,-12.15,80.03,-165.39
1134.347,-3.33,103.0,-174.84
1134.355,1.56,129.26,-175.94
1134.363,3.73,159.71,-174.19
1134.37,2.89,185.06,-175.22
1134.378,-0.93,199.98,-172.62
1134.386,-4.45,207.91,-165.55
1134.393,-4.11,209.31,-163.81
1134.401,0.13,204.79,-164.9
1134.409,2.36,196.25,-155.73
1134.416,-1.46,176.61,-139.65
1134.424,-4.76,141.01,-131.18
1134.432,-3.7,98.46,-129.84
1134.44,-6.92,54.27,-126.87
1134.447,-16.84,7.26,-124.18
1134.455,-22.95,-32.48,-125.31
1134.463,-21.02,-57.28,-124.35
1134.47,-16.23,-80.16,-117.92
1134.478,-12.31,-107.69,-114.13
1134.486,-10.85,-122.8,-118.43
1134.493,-10.22,-118.94,-122.28
1134.501,-5.86,-115.69,-118.63
1134.509,0.2,-124.15,-114.75
1134.516,1.39,-129.68,-115.58
1134.524,-0.96,-119.53,-113.43
1134.532,1.06,-103.68,-106.33
1134.54,3.49,-97.29,-104.18
1134.547,4.22,-97.6,-108.99
1134.555,4.95,-93.44,-110.31
1134.563,5.69,-85.52,-103.92
1134.57,6.42,-78.86,-97.49
1134.578,7.16,-71.72,-93.41
1134.586,7.89,-66.65,-80.21
1134.593,8.62,-69.94,-53.12
1134.601,9.36,-74.24,-32.38
1134.609,10.09,-68.86,-37.89
1134.616,0.93,-61.51,-56.76
1134.624,-24.52,-63.55,-65.07
1134.632,-39.02,-69.04,-63.82
1134.64,-31.89,-68.34,-66.15
1134.647,-22.18,-63.44,-69.12
1134.655,-16.4,-60.23,-60.73
1134.663,-11.18,-60.78,-49.27
1134.67,-20.63,-64.74,-55.21
1134.678,-45.65,-68.7,-51.25
1134.686,-60.97,-66.5,32.62
1134.693,-57.94,-58.21,231.41
1134.701,-40.36,-51.93,544.31
1134.709,0.42,-49.3,847.19
1134.716,43.83,-49.02,749.44
1134.724,39.64,-46.21,72.5
1134.732,-1.89,-42.89,-570.03
1134.74,-16.11,-46.36,-543.08
1134.747,-3.25,-40.42,-55.81
1134.755,-23.06,-35.05,-23.94
1134.763,-74.44,-34.73,-91.4
1134.77,-104.59,-37.12,-44.03
1134.778,-104.54,-36.04,11.99
1134.786,-94.39,-32.21,9.25
1134.793,-90.41,-32.82,9.76
1134.801,-121.68,-36.68,37.91
1134.809,-150.63,-35.44,61.27
1134.816,-25.64,-30.12,76.97
1134.824,373.07,-27.15,93.9
1134.832,1001.52,-26.0,114.35
1134.84,1520.91,-24.13,147.66
1134.847,1319.02,-21.64,191.18
1134.855,299.09,-19.71,230.93
1134.863,-573.4,-21.51,269.74
1134.87,-536.46,-25.44,312.72
1134.878,-170.13,-23.07,344.35
1134.886,-185.47,-15.79,354.04
1134.893,-309.23,-15.57,351.53
1134.901,-221.21,-21.58,338.07
1134.909,-156.63,-21.92,300.2
1134.916,-204.23,-18.41,235.54
1134.924,-189.85,-21.15,152.77
1134.932,-136.18,-25.04,60.7
1134.94,-134.86,-18.6,-23.23
1134.947,-131.71,-4.41,-82.44
1134.955,-101.94,8.4,-122.65
1134.963,-91.28,15.04,-154.85
1134.97,-89.9,11.82,-174.64
1134.978,-69.71,0.21,-181.16
1134.986,-45.35,-12.74,-185.17
1134.993,-28.5,-23.51,-186.55
1135.001,-14.06,-26.81,-177.25
1135.009,-4.63,-18.39,-163.4
1135.016,4.02,-11.4,-155.34
1135.024,27.98,-14.48,-149.94
1135.032,64.18,-9.88,-142.0
1135.04,93.37,36.39,-133.72
1135.047,118.5,217.19,-126.08
1135.055,147.84,623.65,-117.52
1135.063,161.75,1023.74,-107.95
1135.07,170.43,910.11,-97.31
1135.078,209.96,268.09,-89.25
1135.086,219.02,-219.98,-89.5
1135.093,127.22,-184.34,-92.32
1135.101,30.22,-33.51,-87.57
1135.109,28.17,-83.43,-81.34
1135.116,13.49,-140.46,-83.72
1135.124,-14.74,-95.23,-87.99
1135.132,-39.48,-80.93,-85.53
1135.14,-45.28,-103.14,-82.29
1135.147,-47.6,-85.44,-85.73
1135.155,-56.53,-63.62,-92.16
1135.163,-66.92,-68.47,-93.91
1135.17,-32.57,-64.01,-90.43
1135.178,-30.49,-49.37,-86.99
1135.186,-35.79,-46.23,-85.79
1135.193,-27.23,-41.43,-86.96
1135.201,-15.36,-23.93,-91.77
1135.209,-23.34,-5.97,-96.44
1135.216,-47.37,8.51,-96.39
1135.224,-62.08,24.87,-94.38
1135.232,-57.02,41.51,-88.62
1135.24,-46.38,58.18,-68.55
1135.247,-43.03,79.4,-45.1
1135.255,-45.76,103.52,-21.51
1135.263,-49.71,122.07,-18.23
1135.27,-49.9,124.93,-25.95
1135.278,-42.9,127.8,25.34
1135.286,-33.03,130.66,133.26
1135.293,-27.3,133.53,313.93
1135.301,-27.19,136.39,506.92
1135.309,-29.75,139.26,513.52
1135.316,-30.26,142.13,-184.13
1135.324,-25.82,144.99,-645.59
1135.332,-18.35,156.48,-391.39
1135.34,-11.67,184.44,-50.65
1135.347,-9.38,202.81,-44.73
1135.355,-12.38,205.51,-84.16
1135.363,-14.39,199.31,-23.22
1135.37,-9.34,193.07,-6.31
1135.378,-1.27,182.14,-24.12
1135.386,3.22,154.94,0.44
1135.393,4.09,115.29,24.27
1135.401,4.0,78.04,24.2
1135.409,1.94,43.96,35.66
1135.416,-7.18,3.07,52.63
1135.424,-23.25,-43.34,62.14
1135.432,-35.97,-82.44,83.69
1135.44,-36.49,-105.02,113.02
1135.447,-19.25,-114.64,129.52
1135.455,17.43,-122.64,149.04
1135.463,46.28,-131.45,191.73
1135.47,31.92,-132.41,240.09
1135.478,-2.93,-124.6,276.67
1135.486,-11.64,-118.32,312.83
1135.493,-10.57,-116.25,350.64
1135.501,-34.38,-111.11,364.98
1135.509,-62.31,-102.58,345.22
1135.516,-70.67,-97.52,311.01
1135.524,-70.39,-94.97,270.76
1135.532,-66.87,-89.85,207.22
1135.54,-77.72,-86.32,117.1
1135.547,-126.22,-88.3,26.06
1135.555,-136.23,-88.38,-43.28
1135.563,40.12,-83.31,-90.71
1135.57,471.2,-81.97,-126.08
1135.578,1062.55,-84.68,-153.39
1135.586,1433.94,-80.79,-170.23
1135.593,1077.0,-72.26,-178.23
1135.601,128.85,-69.64,-180.76
1135.609,-507.77,-70.15,-174.9
1135.616,-416.97,-68.03,-163.44
1135.624,-184.46,-68.41,-157.85
1135.632,-232.29,-70.87,-156.84
1135.64,-294.6,-66.68,-150.71
1135.647,-218.93,-58.75,-142.58
1135.655,-180.04,-57.45,-136.42
1135.663,-183.02,-62.51,-125.29
1135.67,-199.23,-66.58,-108.04
1135.678,-200.34,-65.35,-93.05
1135.686,-174.84,-58.24,-84.59
1135.693,-178.42,-49.66,-80.73
1135.701,-187.68,-46.34,-77.8
1135.709,-174.88,-47.19,-73.63
1135.716,-154.84,-44.84,-70.08
1135.724,-135.35,-40.73,-68.97
1135.732,-116.78,-43.02,-70.26
1135.74,-102.9,-47.27,-73.61
1135.747,-88.8,-42.85,-73.27
1135.755,-68.47,-35.62,-63.07
1135.763,-43.9,-35.61,-52.41
1135.77,-18.4,-36.21,-54.88
1135.778,6.88,-31.48,-63.73
1135.786,32.22,-28.68,-64.61
1135.793,59.47,-29.16,-60.35
1135.801,90.14,-27.2,-59.58
1135.809,123.01,-25.5,-59.8
1135.816,152.58,-27.73,-60.02
1135.824,172.52,-30.19,-60.23
1135.832,181.74,-30.64,-60.45
1135.84,183.1,-29.01,-60.67
1135.847,178.96,-22.88,-60.88
1135.855,169.29,-17.87,-61.1
1135.863,150.13,-12.46,-64.18
1135.87,118.87,-13.29,-62.7
1135.878,81.23,-11.61,-57.25
1135.886,44.57,-12.68,-55.44
1135.893,10.9,-18.69,-60.53
1135.901,-17.84,-16.94,-65.87
1135.909,-40.12,-10.89,-64.25
1135.916,-60.55,-11.39,-58.92
1135.924,-82.56,-14.38,-56.48
1135.932,-99.87,-3.55,-51.24
1135.94,-104.42,50.08,-30.55
1135.947,-97.85,251.55,-1.53
1135.955,-88.22,684.52,7.93
1135.963,-78.24,1068.56,-9.42
1135.97,-65.66,887.88,-27.31
1135.978,-52.74,205.95,-29.66
1135.986,-42.42,-247.71,-27.29
1135.993,-31.4,-165.89,-27.42
1136.001,-19.61,-11.62,-26.67
1136.009,-12.63,-71.71,-24.42
1136.016,-9.19,-127.31,-24.19
1136.024,-4.62,-81.3,-28.7
1136.032,-1.9,-66.79,-15.51
1136.04,-3.35,-86.98,63.51
1136.047,-4.3,-75.79,244.46
1136.055,-4.41,-62.75,558.23
1136.063,-12.3,-65.35,919.81
1136.07,-31.6,-54.26,927.77
1136.078,-49.8,-36.27,278.86
1136.086,-52.89,-28.34,-508.21
1136.093,-46.68,-19.58,-629.55
1136.101,-44.2,-7.66,-220.17
1136.109,-42.39,-0.46,-1.9
1136.116,-35.31,9.47,-68.83
1136.124,-30.08,28.77,-70.86
1136.132,-30.06,50.61,-3.32
1136.14,-28.08,73.13,-8.41
1136.147,-22.67,101.05,-17.8
1136.155,-18.45,129.29,15.28
1136.163,-18.19,149.47,25.63
1136.17,-24.54,167.59,17.54
1136.178,-34.14,191.74,32.16
1136.186,-35.6,211.17,52.26
1136.193,-23.87,213.48,61.07
1136.201,-29.51,206.31,71.44
1136.209,-25.4,198.03,89.97
1136.216,-18.24,182.4,118.24
1136.224,-17.42,156.16,156.77
1136.232,-18.72,122.05,198.38
1136.24,-23.75,77.7,239.91
1136.247,-34.89,26.85,282.17
1136.255,-45.89,-17.04,320.05
1136.263,-50.85,-51.73,347.41
1136.27,-55.53,-84.06,355.42
1136.278,-71.39,-109.47,334.3
1136.286,-88.47,-121.83,291.96
1136.293,-70.31,-129.11,242.57
1136.301,-16.92,-137.32,178.37
1136.309,7.49,-139.99,91.61
1136.316,-22.44,-134.3,3.41
1136.324,-43.13,-125.98,-65.75
1136.332,-24.67,-117.24,-119.69
1136.34,-20.09,-107.81,-159.13
1136.347,-47.29,-101.88,-175.04
1136.355,-64.36,-100.96,-175.65
1136.363,-60.72,-98.04,-177.92
1136.37,-52.82,-88.44,-173.29
1136.378,-51.03,-76.05,-164.97
1136.386,-84.85,-78.96,-155.64
1136.393,-134.76,-78.76,-148.84
1136.401,-70.7,-78.49,-138.19
1136.409,220.1,-77.55,-133.93
1136.416,750.99,-71.2,-88.02
1136.424,1363.47,-68.96,-70.62
1136.432,1522.46,-69.83,-76.57
1136.44,784.02,-69.58,-80.24
1136.447,-252.09,-68.94,-76.66
1136.455,-548.15,-66.63,-81.75
1136.463,-221.75,-60.08,-91.4
1136.47,-116.64,-52.9,-92.51
1136.478,-269.54,-49.21,-88.84
1136.486,-250.77,-47.52,-88.05
1136.493,-148.66,-47.91,-88.05
1136.501,-164.06,-52.17,-87.41
1136.509,-173.73,-54.35,-89.17
1136.516,-124.91,-48.59,-91.42
1136.524,-118.67,-42.43,-88.69
1136.532,-143.14,-43.58,-82.2
1136.54,-140.67,-45.49,-78.27
1136.547,-124.86,-41.92,-78.68
1136.555,-107.49,-38.09,-79.02
1136.563,-87.75,-38.97,-75.25
1136.57,-77.8,-41.49,-69.64
1136.578,-68.91,-39.64,-69.29
1136.586,-46.07,-32.91,-76.4
1136.593,-20.44,-29.38,-84.2
1136.601,1.11,-32.46,-86.06
1136.609,26.5,-32.96,-82.25
1136.616,49.43,-27.64,-73.94
1136.624,61.48,-24.41,-58.04
1136.632,76.97,-22.92,-33.14
1136.64,109.39,-18.7,-8.42
1136.647,147.03,-18.59,1.04
1136.655,171.42,-26.29,-7.26
1136.663,179.37,-31.27,-18.82
1136.67,179.25,-25.98,-21.8
1136.678,178.65,-17.02,-18.85
1136.686,178.3,-15.09,-18.44
1136.693,171.23,-21.29,-22.46
1136.701,146.65,-25.44,-20.67
1136.709,103.02,-20.47,-7.38
1136.716,56.82,-12.32,-0.04
1136.724,23.57,-9.11,0.15
1136.732,-1.16,-11.26,48.45
1136.74,-25.31,-16.47,210.9
1136.747,-46.81,-22.83,518.99
1136.755,-58.38,-26.55,900.09
1136.763,-69.98,-24.08,1022.93
1136.77,-81.87,-14.93,531.38
1136.778,-82.5,-1.65,-284.73
1136.786,-72.72,10.53,-631.86
1136.793,-60.83,15.78,-338.33
1136.801,-59.03,10.9,-29.03
1136.809,-74.86,-3.22,-30.46
1136.816,-92.08,-19.74,-70.57
1136.824,-86.3,-25.55,-13.17
1136.832,-64.06,-14.84,8.44
1136.84,-48.27,-2.79,-8.64
1136.847,-42.2,-4.09,7.73
1136.855,-39.66,-8.13,25.15
1136.863,-39.36,4.58,23.47
1136.87,-38.83,92.17,34.01
1136.878,-39.33,389.98,49.97
1136.886,-44.16,869.21,57.42
1136.893,-48.26,1082.96,74.14
1136.901,-49.11,660.83,101.49
1136.909,-51.0,1.04,117.63
1136.916,-51.13,-229.41,119.7
1136.924,-45.99,-79.43,121.78
1136.932,-41.13,-0.8,123.85
1136.94,-38.77,-5.22,125.92
1136.947,-36.77,-9.65,127.99
1136.955,-37.52,-14.07,130.07
1136.963,-39.13,-18.49,132.14
1136.97,-33.2,-22.92,135.37
1136.978,-20.84,-27.34,167.83
1136.986,-13.35,-31.77,215.82
1136.993,-16.23,-36.46,265.31
1137.001,-23.0,-144.24,312.81
1137.009,-23.09,-101.57,356.83
1137.016,-15.24,-66.67,382.47
1137.024,-10.2,-95.17,378.86
1137.032,-15.26,-84.56,357.29
1137.04,-27.06,-60.34,326.22
1137.047,-43.22,-69.29,269.97
1137.055,-59.78,-64.01,179.72
1137.063,-63.29,-36.78,77.14
1137.07,-52.08,-28.85,-13.21
1137.078,-47.35,-31.19,-85.86
1137.086,-59.71,-18.24,-141.28
1137.093,-74.18,-3.03,-176.35
1137.101,-79.88,2.59,-192.44
1137.109,-80.86,13.36,-200.41
1137.116,-80.78,36.69,-209.35
1137.124,-83.93,60.51,-213.32
1137.132,-95.19,79.17,-205.83
1137.14,-107.16,101.16,-198.36
1137.147,-107.88,130.66,-199.95
1137.155,-93.11,159.68,-199.53
1137.163,-56.9,178.59,-189.62
1137.17,-6.42,187.37,-177.12
1137.178,15.74,194.27,-164.03
1137.186,-12.37,200.76,-146.48
1137.193,-39.76,197.99,-127.11
1137.201,-24.83,185.14,-112.65
1137.209,-7.7,170.27,-105.37
1137.216,-24.32,147.41,-98.98
1137.224,-44.71,103.05,-87.18
1137.232,-48.13,46.56,-77.19
1137.24,-48.52,1.86,-77.64
1137.247,-46.66,-27.33,-81.35
1137.255,-55.5,-54.1,-81.16
1137.263,-89.02,-80.11,-82.74
1137.27,-55.0,-99.07,-88.07
1137.278,200.66,-113.43,-91.01
1137.286,718.36,-124.17,-91.1
1137.293,1319.61,-124.55,-93.15
1137.301,1539.95,-117.6,-97.15
1137.309,949.75,-114.44,-96.91
1137.316,18.78,-114.97,-88.95
1137.324,-206.28,-111.73,-79.83
1137.332,-431.33,-103.24,-76.95
1137.34,-557.41,-93.29,-77.46
1137.347,-318.78,-86.84,-75.39
1137.355,-112.7,-84.89,-69.6
1137.363,-216.93,-83.19,-61.32
1137.37,-251.26,-81.79,-53.25
1137.378,-154.61,-83.65,-49.11
1137.386,-158.23,-82.72,-51.89
1137.393,-216.37,-73.95,-60.77
1137.401,-202.05,-67.41,-66.07
1137.409,-170.83,-70.87,-59.71
1137.416,-164.06,-75.29,-50.09
1137.424,-146.87,-72.86,-42.03
1137.432,-125.09,-68.16,-21.32
1137.44,-115.01,-65.88,9.43
1137.447,-100.37,-64.78,20.21
1137.455,-76.91,-62.69,4.2
1137.463,-57.2,-59.55,-12.41
1137.47,-41.58,-57.35,-15.8
1137.478,-23.0,-56.18,-14.52
1137.486,-1.36,-54.03,-16.61
1137.493,21.1,-52.76,-20.0
1137.501,46.4,-53.64,-16.17
1137.509,74.89,-52.09,-10.73
1137.516,102.9,-48.96,-16.41
1137.524,130.7,-51.05,-3.57
1137.532,158.83,-53.23,5.12
1137.54,181.0,-46.73,13.8
1137.547,194.35,-40.7,22.49
1137.555,201.51,-41.77,31.18
1137.563,196.86,-43.45,39.87
1137.57,172.85,-44.72,48.55
1137.578,137.72,-41.56,57.24
1137.586,106.36,-37.76,65.93
1137.593,80.05,-40.37,74.61
1137.601,49.47,-41.98,83.3
1137.609,12.52,-37.22,188.13
1137.616,-21.85,-34.35,493.59
1137.624,-48.69,-36.38,931.79
1137.632,-73.11,-34.53,1155.81
1137.64,-94.66,-28.19,708.88
1137.647,-104.73,-26.56,-174.2
1137.655,-103.72,-28.87,-623.81
1137.663,-98.87,-26.81,-376.96
1137.67,-90.77,-21.98,-70.1
1137.678,-79.44,-20.91,-78.31
1137.686,-69.21,-21.86,-127.89
1137.693,-60.74,-21.39,-70.02
1137.701,-51.88,-22.06,-51.78
1137.709,-42.45,-25.0,-76.05
1137.716,-33.47,-26.03,-53.01
1137.724,-27.66,-22.34,-23.2
1137.732,-25.79,-16.82,-26.16
1137.74,-23.67,-15.1,-22.01
1137.747,-19.78,-17.6,-4.04
1137.755,-16.55,-18.33,6.15
1137.763,-14.2,-16.59,22.29
1137.77,-13.44,-18.25,55.12
1137.778,-15.79,-20.94,87.83
1137.786,-18.63,-18.84,116.16
1137.793,-19.5,-18.81,152.84
1137.801,-18.81,-25.79,201.09
1137.809,-16.08,-28.05,254.88
1137.816,-12.51,-19.38,306.33
1137.824,-11.91,-8.6,344.96
1137.832,-14.1,1.26,364.0
1137.84,-15.31,11.44,362.48
1137.847,-13.05,14.02,338.63
1137.855,-7.47,6.06,290.58
1137.863,-2.52,-5.08,218.73
1137.87,-4.22,-17.9,125.68
1137.878,-14.72,-29.09,24.79
1137.886,-29.78,-26.29,-59.37
1137.893,-40.74,-15.25,-115.26
1137.901,-42.7,-16.58,-156.26
1137.909,-37.76,-22.82,-194.19
1137.916,-35.76,0.21,-220.37
1137.924,-37.64,115.11,-227.4
1137.932,-38.92,424.96,-226.19
1137.94,-41.67,869.75,-227.12
1137.947,-45.19,1031.07,-226.47
1137.955,-46.62,596.78,-220.92
1137.963,-58.06,-32.33,-215.24
1137.97,-85.55,-237.27,-210.87
1137.978,-104.08,-87.99,-202.06
1137.986,-96.58,-39.69,-186.25
1137.993,-83.2,-122.76,-169.55
1138.001,-81.12,-124.17,-157.31
1138.009,-83.72,-80.16,-144.76
1138.016,-80.77,-90.54,-127.58
1138.024,-56.46,-97.59,-113.13
1138.032,-7.23,-70.95,-106.8
1138.04,21.53,-64.16,-102.01
1138.047,-2.88,-72.75,-93.99
1138.055,-28.02,-58.85,-86.95
1138.063,-12.71,-40.13,-85.44
1138.07,-13.2,-34.62,-89.28
1138.078,-62.02,-15.73,-93.37
1138.086,-96.19,30.09,-91.83
1138.093,-86.56,49.22,-84.6
1138.101,-74.16,72.51,-75.82
1138.109,-72.78,91.92,-66.47
1138.116,-89.83,118.58,-65.0
1138.124,-136.72,153.21,-60.87
1138.132,-116.96,205.94,-54.92
1138.14,120.84,218.54,-53.79
1138.147,624.67,201.79,-54.21
1138.155,1260.07,187.63,-54.67
1138.163,1544.69,176.25,-49.11
1138.17,945.03,150.39,-48.64
1138.178,-143.22,106.65,-57.12
1138.186,-609.17,55.59,-65.51
1138.193,-303.15,7.67,-61.17
1138.201,-106.0,-31.79,-43.69
1138.209,-259.58,-61.03,-19.76
1138.216,-286.58,-85.09,7.37
1138.224,-164.92,-108.24,29.14
1138.232,-160.24,-122.99,29.42
1138.24,-188.1,-126.59,8.84
1138.247,-141.89,-129.37,-10.07
1138.255,-121.31,-130.6,-12.85
1138.263,-134.61,-122.34,-7.93
1138.27,-112.5,-115.29,-9.33
1138.278,-82.85,-117.93,-15.36
1138.286,-74.04,-116.13,-12.42
1138.293,-60.59,-105.12,-4.81
1138.301,-44.57,-97.92,-5.28
1138.309,-37.12,-93.63,14.34
1138.316,-21.57,-85.11,111.65
1138.324,5.6,-81.42,368.4
1138.332,29.97,-86.86,867.24
1138.34,48.52,-89.1,1358.44
1138.347,64.61,-83.56,1164.71
1138.355,83.74,-78.29,150.72
1138.363,112.42,-77.9,-679.54
1138.37,141.74,-81.7,-562.53
1138.378,159.31,-85.97,-103.21
1138.386,171.78,-84.47,-41.66
1138.393,185.45,-76.21,-146.76
1138.401,192.0,-67.21,-80.5
1138.409,189.72,-63.01,-17.72
1138.416,185.81,-63.53,-54.69
1138.424,177.94,-63.06,-52.55
1138.432,155.01,-59.41,-14.19
1138.44,114.23,-58.89,-10.86
1138.447,70.25,-61.98,-6.01
1138.455,37.29,-60.03,20.21
1138.463,26.71,-54.23,35.32
1138.47,16.12,-54.08,44.94
1138.478,-1.09,-57.65,66.97
1138.486,-26.38,-56.76,91.19
1138.493,-53.94,-53.22,114.48
1138.501,-93.96,-52.64,149.32
1138.509,-132.98,-53.54,198.14
1138.516,-140.3,-53.22,253.41
1138.524,-120.54,-53.03,308.56
1138.532,-105.88,-52.46,356.57
1138.54,-102.6,-49.16,387.39
1138.547,-97.25,-45.01,393.54
1138.555,-88.49,-42.86,375.73
1138.563,-76.86,-42.65,337.81
1138.57,-58.19,-44.42,277.93
1138.578,-43.22,-46.26,193.24
1138.586,-50.11,-43.4,91.39
1138.593,-72.08,-37.5,-10.82
1138.601,-81.84,-36.71,-97.14
1138.609,-70.54,-41.4,-159.25
1138.616,-56.23,-42.13,-199.66
1138.624,-54.32,-36.26,-225.47
1138.632,-63.41,-33.84,-239.91
1138.64,-74.76,-39.32,-245.19
1138.647,-79.51,-42.11,-244.8
1138.655,-74.66,-42.72,-235.89
1138.663,-65.58,-41.35,-231.88
1138.67,-57.49,-35.64,-207.64
1138.678,-52.36,-30.71,-189.2
1138.686,-52.35,-22.9,-175.7
1138.693,-53.98,-13.68,-160.12
1138.701,-49.09,-14.24,-140.68
1138.709,-38.51,-24.33,-120.96
1138.716,-30.14,-31.4,-100.28
1138.724,-26.22,-31.31,-80.35
1138.732,-25.5,-30.4,-68.69
1138.74,-27.93,-32.88,-65.47
1138.747,-31.44,-33.37,-62.97
1138.755,-33.48,-21.01,-60.53
1138.763,-33.81,7.53,-62.22
1138.77,-32.84,80.59,-65.25
1138.778,-32.58,309.05,-65.65
1138.786,-34.42,732.43,-64.88
1138.793,-35.23,1026.96,-64.32
1138.801,-34.03,755.47,-64.52
1138.809,-35.53,95.27,-66.1
1138.816,-41.7,-268.78,-65.42
1138.824,-51.0,-156.04,-59.33
1138.832,-61.76,-29.93,-52.7
1138.84,-67.38,-95.65,-50.69
1138.847,-61.87,-128.86,-51.12
1138.855,-51.79,-77.81,-50.23
1138.863,-48.44,-75.42,-47.47
1138.87,-55.19,-96.89,-44.86
1138.878,-67.22,-75.47,-46.84
1138.886,-67.6,-56.31,-55.11
1138.893,-35.17,-57.56,-63.41
1138.901,16.24,-42.26,-65.21
1138.909,35.58,-20.39,-61.51
1138.916,8.67,-17.23,-51.79
1138.924,-13.75,-17.98,-29.35
1138.932,-2.34,-6.25,1.46
1138.94,6.98,13.0,19.54
1138.947,-10.09,31.97,13.0
1138.955,-30.11,47.8,-6.72
1138.963,-37.13,65.37,-23.48
1138.97,-36.33,90.57,-29.6
1138.978,-34.7,118.04,-25.54
1138.986,-52.15,145.2,-20.14
1138.993,-77.84,179.1,-18.46
1139.001,-12.74,212.57,-18.25
1139.009,256.49,229.61,-23.53
1139.016,751.44,233.54,-22.56
1139.024,1301.68,235.56,32.2
1139.032,1561.23,233.87,199.34
1139.04,1521.24,222.38,547.55
1139.047,1481.25,199.69,1029.21
1139.055,1441.26,165.94,1225.25
1139.063,1401.27,120.54,681.78
1139.07,1361.28,65.86,-246.29
1139.078,1321.29,12.51,-648.89
1139.086,1281.3,-31.05,-372.01
1139.093,1241.31,-68.05,-96.96
1139.101,233.73,-97.93,-122.64
1139.109,-502.08,-115.09,-154.99
1139.116,-383.31,-127.88,-92.38
1139.124,-106.68,-143.71,-80.37
1139.132,-205.63,-150.18,-99.22
1139.14,-307.11,-142.18,-71.43
1139.147,-214.01,-135.66,-43.9
1139.155,-193.77,-136.71,-43.63
1139.163,-246.85,-133.98,-30.24
1139.17,-208.84,-124.63,-4.24
1139.178,-161.44,-116.24,8.49
1139.186,-178.41,-110.51,22.04
1139.193,-176.21,-105.9,55.04
1139.201,-141.09,-102.14,93.92
1139.209,-124.58,-95.11,144.47
1139.216,-115.0,-86.03,216.2
1139.224,-93.83,-85.36,273.74
1139.232,-74.93,-84.68,313.46
1139.24,-57.83,-84.01,351.18
1139.247,-36.13,-83.34,376.58
1139.255,-15.68,-82.67,370.23
1139.263,3.92,-82.0,334.8
1139.27,27.37,-81.33,278.66
1139.278,53.93,-84.05,199.21
1139.286,83.29,-86.78,100.23
1139.293,113.96,-85.08,-0.22
1139.301,142.67,-84.82,-86.21
1139.309,168.68,-86.39,-149.3
1139.316,188.92,-83.19,-186.86
1139.324,199.02,-79.38,-206.87
1139.332,199.94,-80.77,-218.88
1139.34,193.3,-80.21,-223.88
1139.347,179.3,-72.96,-224.01
1139.355,159.76,-66.56,-223.88
1139.363,132.93,-65.78,-220.62
1139.37,96.36,-67.06,-212.37
1139.378,56.47,-67.65,-205.91
1139.386,20.92,-67.38,-202.46
1139.393,-9.48,-65.83,-193.14
1139.401,-33.74,-62.76,-174.95
1139.409,-49.63,-57.91,-155.51
1139.416,-60.57,-52.9,-138.91
1139.424,-73.76,-51.47,-121.74
1139.432,-89.08,-52.32,-105.79
1139.44,-94.46,-50.24,-97.77
1139.447,-83.82,-47.44,-95.52
1139.455,-70.42,-49.57,-92.66
1139.463,-64.29,-53.25,-90.38
1139.47,-57.46,-52.3,-89.41
1139.478,-46.05,-48.68,-85.46
1139.486,-36.35,-45.94,-81.33
1139.493,-28.24,-40.34,-84.39
1139.501,-19.68,-21.61,-91.29
1139.509,-14.51,54.16,-92.77
1139.516,-13.57,293.34,-88.53
1139.524,-14.02,708.5,-85.48
1139.532,-14.22,974.17,-86.6
1139.54,-11.91,692.32,-87.83
1139.547,-8.2,55.62,-85.88
1139.555,-9.33,-288.7,-84.66
1139.563,-15.89,-178.14,-87.88
1139.57,-19.63,-48.23,-92.23
1139.578,-16.82,-99.71,-95.09
1139.586,-14.94,-131.62,-98.07
1139.593,-19.67,-86.74,-98.47
1139.601,-32.93,-83.07,-87.61
1139.609,-44.45,-103.8,-60.32
1139.616,-43.22,-84.4,-27.02
1139.624,-48.76,-64.3,-10.91
1139.632,-59.59,-69.31,-20.82
1139.64,-65.61,-62.4,-38.65
1139.647,-60.32,-39.05,-45.33
1139.655,-98.4,-26.08,-41.74
1139.663,-116.59,-21.97,-39.9
1139.67,-102.37,-9.35,-42.78
1139.678,-88.57,11.51,-37.51
1139.686,-97.57,28.81,-26.81
1139.693,-116.12,44.78,-34.63
1139.701,-125.39,71.49,-36.65
1139.709,-118.61,96.77,38.85
1139.716,-105.91,111.1,255.8
1139.724,-99.5,148.69,707.94
1139.732,-87.57,198.08,1306.58
1139.74,-51.44,172.46,1437.36
1139.747,-10.63,78.27,624.05
1139.755,-6.47,57.89,-423.28
1139.763,-30.52,48.5,-428.15
1139.77,-31.21,41.93,-113.05
1139.778,-8.2,28.61,-121.05
1139.786,-12.4,13.53,-186.56
1139.793,-44.4,-6.96,-121.11
1139.801,-59.99,-25.69,-83.68
1139.809,-53.97,-47.15,-101.83
1139.816,-43.32,-75.1,-79.88
1139.824,-38.28,-93.56,-49.29
1139.832,-66.08,-103.46,-47.59
1139.84,-97.62,-102.83,-33.47
1139.847,3.55,-103.48,-6.02
1139.855,339.15,-97.09,6.39
1139.863,875.41,-85.3,19.58
1139.87,1378.48,-80.36,47.99
1139.878,1339.6,-81.23,77.59
1139.886,517.33,-79.99,109.43
1139.893,-379.08,-79.33,154.94
1139.901,-511.63,-81.42,205.96
1139.909,-183.36,-80.56,253.43
1139.916,-128.12,-75.97,301.03
1139.924,-260.86,-72.22,342.7
1139.932,-223.05,-70.26,365.54
1139.94,-145.6,-70.4,371.51
1139.947,-168.45,-72.58,361.61
1139.955,-163.31,-70.53,318.81
1139.963,-114.32,-61.13,234.52
1139.97,-108.7,-55.11,127.95
1139.978,-115.73,-60.84,25.23
1139.986,-94.99,-67.82,-63.61
1139.993,-75.85,-65.04,-143.92
1140.001,-64.44,-59.29,-215.3
1140.009,-45.59,-58.59,-258.44
1140.016,-29.58,-59.5,-263.64
1140.024,-22.45,-60.62,-255.04
1140.032,-10.21,-62.79,-255.53
1140.04,12.8,-58.15,-257.86
1140.047,38.59,-44.64,-252.82
1140.055,62.76,-35.96,-244.53
1140.063,85.39,-38.2,-232.07
1140.07,104.88,-40.58,-215.15
1140.078,124.68,-38.45,-204.72
1140.086,153.65,-39.21,-202.82
1140.093,188.01,-45.23,-195.51
1140.101,204.45,-49.05,-177.15
1140.109,186.88,-43.49,-159.78
1140.116,154.92,-32.62,-152.21
1140.124,141.03,-28.67,-144.56
1140.132,142.39,-30.59,-124.83
1140.14,132.2,-14.69,-100.73
1140.147,106.49,81.26,-88.82
1140.155,80.04,371.44,-91.76
1140.163,71.38,836.58,-97.49
1140.17,62.72,1084.35,-91.61
1140.178,54.05,720.55,-74.06
1140.186,45.39,44.27,-63.07
1140.193,2.11,-260.33,-66.62
1140.201,-33.31,-127.18,-69.42
1140.209,-52.07,-31.84,-65.28
1140.216,-61.43,-104.34,-65.9
1140.224,-69.96,-124.38,-72.04
1140.232,-89.29,-78.22,-75.75
1140.24,-119.63,-81.57,-79.25
1140.247,-134.6,-99.01,-85.82
1140.255,-120.49,-79.49,-92.38
1140.263,-99.55,-61.93,-93.14
1140.27,-87.76,-59.75,-79.94
1140.278,-79.43,-50.28,-55.12
1140.286,-73.13,-37.3,-40.38
1140.293,-67.58,-27.37,-28.75
1140.301,-54.36,-13.11,-19.19
1140.309,-36.71,-3.3,-3.98
1140.316,-27.68,-1.52,6.69
1140.324,-30.07,0.26,17.44
1140.332,-35.5,2.04,8.96
1140.34,-35.73,3.82,-4.77
1140.347,-30.3,5.6,31.29
1140.355,-24.35,7.38,177.32
1140.363,-20.22,9.16,515.22
1140.37,-19.87,14.67,1062.14
1140.378,-28.39,25.27,1443.29
1140.386,-42.07,41.44,1049.06
1140.393,-46.79,66.64,11.36
1140.401,-38.39,97.51,-650.44
1140.409,-28.67,126.27,-462.97
1140.416,-28.4,152.67,-100.24
1140.424,-35.65,180.69,-89.64
1140.432,-39.26,206.19,-154.8
1140.44,-31.37,223.84,-82.31
1140.447,-17.81,233.72,-44.66
1140.455,-11.61,233.58,-71.98
1140.463,-18.66,222.23,-49.73
1140.47,-32.55,204.22,-16.31
1140.478,-40.01,178.33,-27.52
1140.486,-35.38,139.3,-28.2
1140.493,-27.7,93.0,4.66
1140.501,-25.79,49.39,31.2
1140.509,-28.7,7.69,42.97
1140.516,-35.04,-34.65,58.74
1140.524,-44.11,-70.49,84.4
1140.532,-51.61,-92.92,119.55
1140.54,-56.81,-106.83,163.41
1140.547,-62.32,-120.65,213.41
1140.555,-66.07,-131.99,268.07
1140.563,-68.19,-131.88,320.7
1140.57,-71.07,-121.57,359.41
1140.578,-57.86,-113.46,380.43
1140.586,-10.38,-113.73,386.86
1140.593,34.25,-113.17,373.66
1140.601,20.51,-101.67,331.23
1140.609,-19.98,-86.41,261.49
1140.616,-19.24,-82.22,172.0
1140.624,-5.22,-87.21,65.12
1140.632,-31.17,-87.19,-42.81
1140.64,-68.66,-80.28,-117.66
1140.647,-92.21,-75.54,-153.03
1140.655,-96.07,-75.22,-182.02
1140.663,-63.37,-75.29,-218.34
1140.67,-76.19,-73.22,-234.92
1140.678,-152.88,-68.75,-221.93
1140.686,-85.97,-66.03,-212.46
1140.693,85.91,-68.48,-225.4
1140.701,75.11,-69.75,-232.76
1140.709,344.94,-66.11,-214.02
1140.716,688.99,-66.6,-193.47
1140.724,524.38,-71.97,-189.18
1140.732,67.41,-69.48,-179.36
1140.74,-413.42,-60.24,-153.84
1140.747,-208.16,-58.06,-140.77
1140.755,-133.25,-62.05,-152.68
1140.763,-170.05,-62.45,-161.28
1140.77,-179.69,-59.93,-146.48
1140.778,-156.13,-56.77,-120.81
1140.786,-140.02,-50.24,-97.51
1140.793,-123.53,-44.06,-79.39
1140.801,-105.18,-44.3,-72.37
1140.809,-90.18,-45.98,-72.89
1140.816,-74.8,-43.17,-65.69
1140.824,-60.66,-41.09,-57.73
1140.832,-50.87,-43.41,-71.02
1140.84,-39.36,-44.82,-82.85
1140.847,-18.49,-43.1,-86.35
1140.855,8.14,-40.46,-89.85
1140.863,33.21,-35.9,-93.35
1140.87,60.19,-29.98,-96.85
1140.878,92.88,-27.44,-100.35
1140.886,124.5,-28.7,-92.66
1140.893,150.53,-29.47,-70.6
1140.901,172.4,-28.11,-55.13
1140.909,186.42,-26.03,-52.3
1140.916,188.63,-24.69,-48.86
1140.924,183.45,-25.16,-43.77
1140.932,174.94,-26.96,-48.07
1140.94,158.67,-31.1,-65.92
1140.947,129.83,-31.6,-87.22
1140.955,93.15,-22.49,-91.09
1140.963,57.57,-12.47,-62.43
1140.97,24.45,-12.84,-18.31
1140.978,-8.38,-16.8,1.99
1140.986,-36.64,-14.64,-11.31
1140.993,-56.25,-13.44,-30.26
1141.001,-69.51,-16.69,-38.0
1141.009,-77.31,-14.56,-40.52
1141.016,-79.11,-8.64,-40.97
1141.024,-77.38,-9.16,-40.76
1141.032,-72.12,-12.61,-40.39
1141.04,-62.19,-12.96,-32.17
1141.047,-51.46,-13.14,-21.7
1141.055,-42.46,-12.17,-19.16
1141.063,-34.2,-8.04,7.96
1141.07,-29.32,-6.68,134.37
1141.078,-32.47,-10.28,463.91
1141.086,-45.21,-12.86,1013.97
1141.093,-62.66,-10.87,1400.38
1141.101,-72.07,-6.24,1017.01
1141.109,-67.26,-4.21,6.82
1141.116,-58.58,-7.31,-622.51
1141.124,-54.34,-10.45,-428.61
1141.132,-51.08,-10.98,-91.33
1141.14,-48.47,-13.96,-109.9
1141.147,-50.07,-18.31,-182.55
1141.155,-52.71,-16.64,-95.94
1141.163,-51.53,-10.08,-44.05
1141.17,-46.21,-2.88,-76.77
1141.178,-39.45,8.05,-67.94
1141.186,-36.19,20.88,-26.06
1141.193,-37.64,24.1,-14.97
1141.201,-37.46,15.11,-26.37
1141.209,-32.25,2.08,-37.98
1141.216,-25.88,-9.93,-22.1
1141.224,-19.77,-15.12,33.79
1141.232,-9.8,-9.5,77.5
1141.24,-10.65,-5.47,81.95
1141.247,-12.73,-9.8,103.55
1141.255,-13.36,-3.53,164.29
1141.263,-26.85,53.31,216.92
1141.27,-31.53,266.9,252.8
1141.278,-29.72,717.75,301.27
1141.286,-32.64,1121.91,348.36
1141.293,-35.36,957.17,364.39
1141.301,-24.1,278.58,357.77
1141.309,-14.93,-196.15,339.67
1141.316,-35.66,-156.79,299.24
1141.324,-66.82,-33.68,236.92
1141.332,-66.91,-92.52,161.73
1141.34,-52.24,-136.8,66.3
1141.347,-67.17,-93.11,-42.65
1141.355,-99.1,-86.4,-127.39
1141.363,-110.6,-106.12,-173.46
1141.37,-102.87,-87.26,-206.61
1141.378,-91.16,-66.59,-238.72
1141.386,-94.93,-69.2,-256.52
1141.393,-131.35,-65.26,-258.27
1141.401,-130.26,-49.54,-255.39
1141.409,48.4,-39.24,-253.5
1141.416,468.3,-37.38,-250.97
1141.424,1041.22,-32.43,-243.08
1141.432,1422.23,-15.25,-227.94
1141.44,1104.46,3.93,-218.61
1141.447,155.1,20.11,-214.74
1141.455,-527.23,51.89,-210.87
1141.463,-434.14,116.89,-206.99
1141.47,-153.14,127.0,-201.08
1141.478,-194.84,144.24,-195.33
1141.486,-282.4,155.67,-193.07
1141.493,-207.31,179.3,-184.25
1141.501,-165.85,181.89,-166.99
1141.509,-192.28,163.31,-154.37
1141.516,-163.43,136.55,-151.78
1141.524,-123.06,108.25,-148.55
1141.532,-132.92,73.3,-142.16
1141.54,-138.84,35.81,-140.68
1141.547,-117.72,0.95,-141.51
1141.555,-106.29,-34.94,-137.42
1141.563,-110.78,-68.83,-132.91
1141.57,-108.95,-91.51,-133.56
1141.578,-93.29,-105.64,-136.99
1141.586,-73.67,-117.78,-143.96
1141.593,-55.51,-122.67,-155.17
1141.601,-32.24,-116.81,-157.77
1141.609,-2.32,-110.95,-143.23
1141.616,26.74,-112.63,-128.03
1141.624,52.76,-112.44,-127.55
1141.632,78.61,-100.63,-131.84
1141.64,106.77,-86.44,-130.76
1141.647,138.9,-85.4,-131.21
1141.655,170.3,-93.14,-135.18
1141.663,191.73,-93.52,-132.61
1141.67,198.94,-87.32,-120.81
1141.678,193.18,-86.85,-104.27
1141.686,179.57,-91.74,-78.5
1141.693,163.45,-93.26,-42.03
1141.701,142.91,-90.34,-17.63
1141.709,113.59,-87.03,-23.86
1141.716,76.01,-85.37,-39.72
1141.724,32.81,-85.72,-41.38
1141.732,-8.03,-86.72,-41.39
1141.74,-34.63,-85.0,-51.06
1141.747,-47.75,-80.65,-53.24
1141.755,-57.9,-80.46,-42.75
1141.763,-67.39,-86.65,-46.32
1141.77,-76.0,-88.21,-74.85
1141.778,-87.85,-78.37,-80.75
1141.786,-98.11,-69.62,0.97
1141.793,-98.34,-71.43,217.29
1141.801,-98.56,-72.58,657.28
1141.809,-89.63,-65.56,1286.36
1141.816,-70.82,-61.36,1573.94
1141.824,-60.58,-65.78,936.31
1141.832,-67.69,-70.07,-175.5
1141.84,-76.13,-69.5,-645.36
1141.847,-66.44,-68.51,-334.81
1141.855,-44.82,-69.69,-76.41
1141.863,-29.96,-69.09,-156.51
1141.87,-25.69,-61.91,-188.04
1141.878,-26.36,-51.95,-97.07
1141.886,-28.39,-49.01,-84.66
1141.893,-27.1,-53.33,-112.53
1141.901,-20.77,-54.86,-85.74
1141.909,-15.14,-50.42,-61.28
1141.916,-15.24,-47.33,-66.21
1141.924,-20.27,-47.84,-59.42
1141.932,-25.61,-44.08,-37.84
1141.94,-25.6,-34.53,-14.01
1141.947,-19.62,-29.97,12.57
1141.955,-13.53,-33.97,36.07
1141.963,-11.88,-37.28,58.62
1141.97,-13.84,-37.38,89.21
1141.978,-15.86,-39.01,125.91
1141.986,-14.19,-38.1,171.76
1141.993,-7.94,-30.53,230.53
1142.001,-1.09,-25.12,283.92
1142.009,1.55,-28.2,317.68
1142.016,0.12,-31.61,339.75
1142.024,-1.62,-29.56,348.56
1142.032,-3.27,-25.62,344.13
1142.04,-7.78,-19.51,339.69
1142.047,-13.21,-18.53,303.98
1142.055,-13.55,-19.58,245.82
1142.063,-10.05,-20.26,181.12
1142.07,-12.77,-23.08,99.85
1142.078,-26.98,-23.62,5.69
1142.086,-42.02,-14.34,-70.5
1142.093,-42.52,-2.32,-109.52
1142.101,-33.23,0.26,-130.49
